# === DATA DESCRIPTION FILE ======================================================
#
# CAUTION - Investigational device.
# Limited by Federal Law to investigational use.
#
# Dataset name: E:\\Export\\ASL_3D_Multiecho
#
# CLINICAL TRYOUT             Research image export tool     V4.2
#
# === GENERAL INFORMATION ========================================================
#
.    Patient name                       :   anon
.    Examination name                   :   anon
.    Protocol name                      :   anon
.    Examination date/time              :   anon
.    Series Type                        :   Image   MRSERIES
.    Acquisition nr                     :   5
.    Reconstruction nr                  :   3
.    Scan Duration [sec]                :   143
.    Max. number of cardiac phases      :   1
.    Max. number of echoes              :   3
.    Max. number of slices/locations    :   8
.    Max. number of dynamics            :   2
.    Max. number of mixes               :   1
.    Patient position                   :   Head First Supine
.    Preparation direction              :   Anterior-Posterior
.    Technique                          :   T1TFE
.    Scan resolution  (x, y)            :   76  120
.    Scan mode                          :   3D
.    Repetition time [ms]               :   7.093
.    FOV (ap,fh,rl) [mm]                :   224.000  24.000  224.000
.    Water Fat shift [pixels]           :   0.701
.    Angulation midslice(ap,fh,rl)[degr]:   5.000  15.000  30.000
.    Off Centre midslice(ap,fh,rl) [mm] :   -4.810  3.500  -3.607
.    Flow compensation <0=no 1=yes> ?   :   0
.    Presaturation     <0=no 1=yes> ?   :   0
.    Phase encoding velocity [cm/sec]   :   0.000000  0.000000  0.000000
.    MTC               <0=no 1=yes> ?   :   0
.    SPIR              <0=no 1=yes> ?   :   0
.    EPI factor        <0,1=no EPI>     :   1
.    Dynamic scan      <0=no 1=yes> ?   :   1
.    Diffusion         <0=no 1=yes> ?   :   0
.    Diffusion echo time [ms]           :   0.0000
.    Max. number of diffusion values    :   1
.    Max. number of gradient orients    :   1
.    Number of label types   <0=no ASL> :   2
#
# === PIXEL VALUES =============================================================
#  PV = pixel value in REC file, FP = floating point value, DV = displayed value on console
#  RS = rescale slope,           RI = rescale intercept,    SS = scale slope
#  DV = PV * RS + RI             FP = DV / (RS * SS)
#
# === IMAGE INFORMATION DEFINITION =============================================
#  The rest of this file contains ONE line per image, this line contains the following information:
#
#  slice number                             (integer)
#  echo number                              (integer)
#  dynamic scan number                      (integer)
#  cardiac phase number                     (integer)
#  image_type_mr                            (integer)
#  scanning sequence                        (integer)
#  index in REC file (in images)            (integer)
#  image pixel size (in bits)               (integer)
#  scan percentage                          (integer)
#  recon resolution (x y)                   (2*integer)
#  rescale intercept                        (float)
#  rescale slope                            (float)
#  scale slope                              (float)
#  window center                            (integer)
#  window width                             (integer)
#  image angulation (ap,fh,rl in degrees )  (3*float)
#  image offcentre (ap,fh,rl in mm )        (3*float)
#  slice thickness (in mm )                 (float)
#  slice gap (in mm )                       (float)
#  image_display_orientation                (integer)
#  slice orientation ( TRA/SAG/COR )        (integer)
#  fmri_status_indication                   (integer)
#  image_type_ed_es  (end diast/end syst)   (integer)
#  pixel spacing (x,y) (in mm)              (2*float)
#  echo_time                                (float)
#  dyn_scan_begin_time                      (float)
#  trigger_time                             (float)
#  diffusion_b_factor                       (float)
#  number of averages                       (integer)
#  image_flip_angle (in degrees)            (float)
#  cardiac frequency   (bpm)                (integer)
#  minimum RR-interval (in ms)              (integer)
#  maximum RR-interval (in ms)              (integer)
#  TURBO factor  <0=no turbo>               (integer)
#  Inversion delay (in ms)                  (float)
#  diffusion b value number    (imagekey!)  (integer)
#  gradient orientation number (imagekey!)  (integer)
#  contrast type                            (string)
#  diffusion anisotropy type                (string)
#  diffusion (ap, fh, rl)                   (3*float)
#  label type (ASL)            (imagekey!)  (integer)
#
# === IMAGE INFORMATION ==========================================================
#  sl ec  dyn ph ty    idx pix scan% rec size                (re)scale              window        angulation              offcentre        thick   gap   info      spacing     echo     dtime   ttime    diff  avg  flip    freq   RR-int  turbo delay b grad cont anis         diffusion       L.ty

  1   1    1  1 0 2    90  16    98   80   80     0.00000   1.50110 8.85639e-004  1070  1860   5.00  15.00  30.00   16.86  -34.03   -7.40  3.000  0.000 0 1 0 2  2.800  2.800   1.42    0.00     0.00    0.00   1    8.00     0    0    0   225   0.0  1   1    3    0   0.000    0.000    0.000  1
  1   2    1  1 0 2    91  16    98   80   80     0.00000   1.50110 8.85639e-004  1070  1860   5.00  15.00  30.00   16.86  -34.03   -7.40  3.000  0.000 0 1 0 2  2.800  2.800   3.45    0.00     0.00    0.00   1    8.00     0    0    0   225   0.0  1   1    3    0   0.000    0.000    0.000  1
  1   3    1  1 0 2    92  16    98   80   80     0.00000   1.50110 8.85639e-004  1070  1860   5.00  15.00  30.00   16.86  -34.03   -7.40  3.000  0.000 0 1 0 2  2.800  2.800   5.49    0.00     0.00    0.00   1    8.00     0    0    0   225   0.0  1   1    3    0   0.000    0.000    0.000  1
  1   1    1  1 0 2    93  16    98   80   80     0.00000   1.50110 8.85639e-004  1070  1860   5.00  15.00  30.00   16.86  -34.03   -7.40  3.000  0.000 0 1 0 2  2.800  2.800   1.42    0.00     0.00    0.00   1    8.00     0    0    0   225   0.0  1   1    3    0   0.000    0.000    0.000  2
  1   2    1  1 0 2    94  16    98   80   80     0.00000   1.50110 8.85639e-004  1070  1860   5.00  15.00  30.00   16.86  -34.03   -7.40  3.000  0.000 0 1 0 2  2.800  2.800   3.45    0.00     0.00    0.00   1    8.00     0    0    0   225   0.0  1   1    3    0   0.000    0.000    0.000  2
  1   3    1  1 0 2    95  16    98   80   80     0.00000   1.50110 8.85639e-004  1070  1860   5.00  15.00  30.00   16.86  -34.03   -7.40  3.000  0.000 0 1 0 2  2.800  2.800   5.49    0.00     0.00    0.00   1    8.00     0    0    0   225   0.0  1   1    3    0   0.000    0.000    0.000  2
  2   1    1  1 0 2    96  16    98   80   80     0.00000   1.50110 8.85639e-004  1070  1860   5.00  15.00  30.00   15.36  -31.44   -7.14  3.000  0.000 0 1 0 2  2.800  2.800   1.42    0.00     0.00    0.00   1    8.00     0    0    0   225   0.0  1   1    3    0   0.000    0.000    0.000  1
  2   2    1  1 0 2    97  16    98   80   80     0.00000   1.50110 8.85639e-004  1070  1860   5.00  15.00  30.00   15.36  -31.44   -7.14  3.000  0.000 0 1 0 2  2.800  2.800   3.45    0.00     0.00    0.00   1    8.00     0    0    0   225   0.0  1   1    3    0   0.000    0.000    0.000  1
  2   3    1  1 0 2    98  16    98   80   80     0.00000   1.50110 8.85639e-004  1070  1860   5.00  15.00  30.00   15.36  -31.44   -7.14  3.000  0.000 0 1 0 2  2.800  2.800   5.49    0.00     0.00    0.00   1    8.00     0    0    0   225   0.0  1   1    3    0   0.000    0.000    0.000  1
  2   1    1  1 0 2    99  16    98   80   80     0.00000   1.50110 8.85639e-004  1070  1860   5.00  15.00  30.00   15.36  -31.44   -7.14  3.000  0.000 0 1 0 2  2.800  2.800   1.42    0.00     0.00    0.00   1    8.00     0    0    0   225   0.0  1   1    3    0   0.000    0.000    0.000  2
  2   2    1  1 0 2   100  16    98   80   80     0.00000   1.50110 8.85639e-004  1070  1860   5.00  15.00  30.00   15.36  -31.44   -7.14  3.000  0.000 0 1 0 2  2.800  2.800   3.45    0.00     0.00    0.00   1    8.00     0    0    0   225   0.0  1   1    3    0   0.000    0.000    0.000  2
  2   3    1  1 0 2   101  16    98   80   80     0.00000   1.50110 8.85639e-004  1070  1860   5.00  15.00  30.00   15.36  -31.44   -7.14  3.000  0.000 0 1 0 2  2.800  2.800   5.49    0.00     0.00    0.00   1    8.00     0    0    0   225   0.0  1   1    3    0   0.000    0.000    0.000  2
  3   1    1  1 0 2   102  16    98   80   80     0.00000   1.50110 8.85639e-004  1070  1860   5.00  15.00  30.00   13.87  -28.85   -6.88  3.000  0.000 0 1 0 2  2.800  2.800   1.42    0.00     0.00    0.00   1    8.00     0    0    0   225   0.0  1   1    3    0   0.000    0.000    0.000  1
  3   2    1  1 0 2   103  16    98   80   80     0.00000   1.50110 8.85639e-004  1070  1860   5.00  15.00  30.00   13.87  -28.85   -6.88  3.000  0.000 0 1 0 2  2.800  2.800   3.45    0.00     0.00    0.00   1    8.00     0    0    0   225   0.0  1   1    3    0   0.000    0.000    0.000  1
  3   3    1  1 0 2   104  16    98   80   80     0.00000   1.50110 8.85639e-004  1070  1860   5.00  15.00  30.00   13.87  -28.85   -6.88  3.000  0.000 0 1 0 2  2.800  2.800   5.49    0.00     0.00    0.00   1    8.00     0    0    0   225   0.0  1   1    3    0   0.000    0.000    0.000  1
  3   1    1  1 0 2   105  16    98   80   80     0.00000   1.50110 8.85639e-004  1070  1860   5.00  15.00  30.00   13.87  -28.85   -6.88  3.000  0.000 0 1 0 2  2.800  2.800   1.42    0.00     0.00    0.00   1    8.00     0    0    0   225   0.0  1   1    3    0   0.000    0.000    0.000  2
  3   2    1  1 0 2   106  16    98   80   80     0.00000   1.50110 8.85639e-004  1070  1860   5.00  15.00  30.00   13.87  -28.85   -6.88  3.000  0.000 0 1 0 2  2.800  2.800   3.45    0.00     0.00    0.00   1    8.00     0    0    0   225   0.0  1   1    3    0   0.000    0.000    0.000  2
  3   3    1  1 0 2   107  16    98   80   80     0.00000   1.50110 8.85639e-004  1070  1860   5.00  15.00  30.00   13.87  -28.85   -6.88  3.000  0.000 0 1 0 2  2.800  2.800   5.49    0.00     0.00    0.00   1    8.00     0    0    0   225   0.0  1   1    3    0   0.000    0.000    0.000  2
  4   1    1  1 0 2   108  16    98   80   80     0.00000   1.50110 8.85639e-004  1070  1860   5.00  15.00  30.00   12.37  -26.26   -6.61  3.000  0.000 0 1 0 2  2.800  2.800   1.42    0.00     0.00    0.00   1    8.00     0    0    0   225   0.0  1   1    3    0   0.000    0.000    0.000  1
  4   2    1  1 0 2   109  16    98   80   80     0.00000   1.50110 8.85639e-004  1070  1860   5.00  15.00  30.00   12.37  -26.26   -6.61  3.000  0.000 0 1 0 2  2.800  2.800   3.45    0.00     0.00    0.00   1    8.00     0    0    0   225   0.0  1   1    3    0   0.000    0.000    0.000  1
  4   3    1  1 0 2   110  16    98   80   80     0.00000   1.50110 8.85639e-004  1070  1860   5.00  15.00  30.00   12.37  -26.26   -6.61  3.000  0.000 0 1 0 2  2.800  2.800   5.49    0.00     0.00    0.00   1    8.00     0    0    0   225   0.0  1   1    3    0   0.000    0.000    0.000  1
  4   1    1  1 0 2   111  16    98   80   80     0.00000   1.50110 8.85639e-004  1070  1860   5.00  15.00  30.00   12.37  -26.26   -6.61  3.000  0.000 0 1 0 2  2.800  2.800   1.42    0.00     0.00    0.00   1    8.00     0    0    0   225   0.0  1   1    3    0   0.000    0.000    0.000  2
  4   2    1  1 0 2   112  16    98   80   80     0.00000   1.50110 8.85639e-004  1070  1860   5.00  15.00  30.00   12.37  -26.26   -6.61  3.000  0.000 0 1 0 2  2.800  2.800   3.45    0.00     0.00    0.00   1    8.00     0    0    0   225   0.0  1   1    3    0   0.000    0.000    0.000  2
  4   3    1  1 0 2   113  16    98   80   80     0.00000   1.50110 8.85639e-004  1070  1860   5.00  15.00  30.00   12.37  -26.26   -6.61  3.000  0.000 0 1 0 2  2.800  2.800   5.49    0.00     0.00    0.00   1    8.00     0    0    0   225   0.0  1   1    3    0   0.000    0.000    0.000  2
  5   1    1  1 0 2   114  16    98   80   80     0.00000   1.50110 8.85639e-004  1070  1860   5.00  15.00  30.00   10.88  -23.68   -6.35  3.000  0.000 0 1 0 2  2.800  2.800   1.42    0.00     0.00    0.00   1    8.00     0    0    0   225   0.0  1   1    3    0   0.000    0.000    0.000  1
  5   2    1  1 0 2   115  16    98   80   80     0.00000   1.50110 8.85639e-004  1070  1860   5.00  15.00  30.00   10.88  -23.68   -6.35  3.000  0.000 0 1 0 2  2.800  2.800   3.45    0.00     0.00    0.00   1    8.00     0    0    0   225   0.0  1   1    3    0   0.000    0.000    0.000  1
  5   3    1  1 0 2   116  16    98   80   80     0.00000   1.50110 8.85639e-004  1070  1860   5.00  15.00  30.00   10.88  -23.68   -6.35  3.000  0.000 0 1 0 2  2.800  2.800   5.49    0.00     0.00    0.00   1    8.00     0    0    0   225   0.0  1   1    3    0   0.000    0.000    0.000  1
  5   1    1  1 0 2   117  16    98   80   80     0.00000   1.50110 8.85639e-004  1070  1860   5.00  15.00  30.00   10.88  -23.68   -6.35  3.000  0.000 0 1 0 2  2.800  2.800   1.42    0.00     0.00    0.00   1    8.00     0    0    0   225   0.0  1   1    3    0   0.000    0.000    0.000  2
  5   2    1  1 0 2   118  16    98   80   80     0.00000   1.50110 8.85639e-004  1070  1860   5.00  15.00  30.00   10.88  -23.68   -6.35  3.000  0.000 0 1 0 2  2.800  2.800   3.45    0.00     0.00    0.00   1    8.00     0    0    0   225   0.0  1   1    3    0   0.000    0.000    0.000  2
  5   3    1  1 0 2   119  16    98   80   80     0.00000   1.50110 8.85639e-004  1070  1860   5.00  15.00  30.00   10.88  -23.68   -6.35  3.000  0.000 0 1 0 2  2.800  2.800   5.49    0.00     0.00    0.00   1    8.00     0    0    0   225   0.0  1   1    3    0   0.000    0.000    0.000  2
  6   1    1  1 0 2   120  16    98   80   80     0.00000   1.50110 8.85639e-004  1070  1860   5.00  15.00  30.00    9.39  -21.09   -6.09  3.000  0.000 0 1 0 2  2.800  2.800   1.42    0.00     0.00    0.00   1    8.00     0    0    0   225   0.0  1   1    3    0   0.000    0.000    0.000  1
  6   2    1  1 0 2   121  16    98   80   80     0.00000   1.50110 8.85639e-004  1070  1860   5.00  15.00  30.00    9.39  -21.09   -6.09  3.000  0.000 0 1 0 2  2.800  2.800   3.45    0.00     0.00    0.00   1    8.00     0    0    0   225   0.0  1   1    3    0   0.000    0.000    0.000  1
  6   3    1  1 0 2   122  16    98   80   80     0.00000   1.50110 8.85639e-004  1070  1860   5.00  15.00  30.00    9.39  -21.09   -6.09  3.000  0.000 0 1 0 2  2.800  2.800   5.49    0.00     0.00    0.00   1    8.00     0    0    0   225   0.0  1   1    3    0   0.000    0.000    0.000  1
  6   1    1  1 0 2   123  16    98   80   80     0.00000   1.50110 8.85639e-004  1070  1860   5.00  15.00  30.00    9.39  -21.09   -6.09  3.000  0.000 0 1 0 2  2.800  2.800   1.42    0.00     0.00    0.00   1    8.00     0    0    0   225   0.0  1   1    3    0   0.000    0.000    0.000  2
  6   2    1  1 0 2   124  16    98   80   80     0.00000   1.50110 8.85639e-004  1070  1860   5.00  15.00  30.00    9.39  -21.09   -6.09  3.000  0.000 0 1 0 2  2.800  2.800   3.45    0.00     0.00    0.00   1    8.00     0    0    0   225   0.0  1   1    3    0   0.000    0.000    0.000  2
  6   3    1  1 0 2   125  16    98   80   80     0.00000   1.50110 8.85639e-004  1070  1860   5.00  15.00  30.00    9.39  -21.09   -6.09  3.000  0.000 0 1 0 2  2.800  2.800   5.49    0.00     0.00    0.00   1    8.00     0    0    0   225   0.0  1   1    3    0   0.000    0.000    0.000  2
  7   1    1  1 0 2   126  16    98   80   80     0.00000   1.50110 8.85639e-004  1070  1860   5.00  15.00  30.00    7.89  -18.50   -5.83  3.000  0.000 0 1 0 2  2.800  2.800   1.42    0.00     0.00    0.00   1    8.00     0    0    0   225   0.0  1   1    3    0   0.000    0.000    0.000  1
  7   2    1  1 0 2   127  16    98   80   80     0.00000   1.50110 8.85639e-004  1070  1860   5.00  15.00  30.00    7.89  -18.50   -5.83  3.000  0.000 0 1 0 2  2.800  2.800   3.45    0.00     0.00    0.00   1    8.00     0    0    0   225   0.0  1   1    3    0   0.000    0.000    0.000  1
  7   3    1  1 0 2   128  16    98   80   80     0.00000   1.50110 8.85639e-004  1070  1860   5.00  15.00  30.00    7.89  -18.50   -5.83  3.000  0.000 0 1 0 2  2.800  2.800   5.49    0.00     0.00    0.00   1    8.00     0    0    0   225   0.0  1   1    3    0   0.000    0.000    0.000  1
  7   1    1  1 0 2   129  16    98   80   80     0.00000   1.50110 8.85639e-004  1070  1860   5.00  15.00  30.00    7.89  -18.50   -5.83  3.000  0.000 0 1 0 2  2.800  2.800   1.42    0.00     0.00    0.00   1    8.00     0    0    0   225   0.0  1   1    3    0   0.000    0.000    0.000  2
  7   2    1  1 0 2   130  16    98   80   80     0.00000   1.50110 8.85639e-004  1070  1860   5.00  15.00  30.00    7.89  -18.50   -5.83  3.000  0.000 0 1 0 2  2.800  2.800   3.45    0.00     0.00    0.00   1    8.00     0    0    0   225   0.0  1   1    3    0   0.000    0.000    0.000  2
  7   3    1  1 0 2   131  16    98   80   80     0.00000   1.50110 8.85639e-004  1070  1860   5.00  15.00  30.00    7.89  -18.50   -5.83  3.000  0.000 0 1 0 2  2.800  2.800   5.49    0.00     0.00    0.00   1    8.00     0    0    0   225   0.0  1   1    3    0   0.000    0.000    0.000  2
  8   1    1  1 0 2   132  16    98   80   80     0.00000   1.50110 8.85639e-004  1070  1860   5.00  15.00  30.00    6.40  -15.91   -5.57  3.000  0.000 0 1 0 2  2.800  2.800   1.42    0.00     0.00    0.00   1    8.00     0    0    0   225   0.0  1   1    3    0   0.000    0.000    0.000  1
  8   2    1  1 0 2   133  16    98   80   80     0.00000   1.50110 8.85639e-004  1070  1860   5.00  15.00  30.00    6.40  -15.91   -5.57  3.000  0.000 0 1 0 2  2.800  2.800   3.45    0.00     0.00    0.00   1    8.00     0    0    0   225   0.0  1   1    3    0   0.000    0.000    0.000  1
  8   3    1  1 0 2   134  16    98   80   80     0.00000   1.50110 8.85639e-004  1070  1860   5.00  15.00  30.00    6.40  -15.91   -5.57  3.000  0.000 0 1 0 2  2.800  2.800   5.49    0.00     0.00    0.00   1    8.00     0    0    0   225   0.0  1   1    3    0   0.000    0.000    0.000  1
  8   1    1  1 0 2   135  16    98   80   80     0.00000   1.50110 8.85639e-004  1070  1860   5.00  15.00  30.00    6.40  -15.91   -5.57  3.000  0.000 0 1 0 2  2.800  2.800   1.42    0.00     0.00    0.00   1    8.00     0    0    0   225   0.0  1   1    3    0   0.000    0.000    0.000  2
  8   2    1  1 0 2   136  16    98   80   80     0.00000   1.50110 8.85639e-004  1070  1860   5.00  15.00  30.00    6.40  -15.91   -5.57  3.000  0.000 0 1 0 2  2.800  2.800   3.45    0.00     0.00    0.00   1    8.00     0    0    0   225   0.0  1   1    3    0   0.000    0.000    0.000  2
  8   3    1  1 0 2   137  16    98   80   80     0.00000   1.50110 8.85639e-004  1070  1860   5.00  15.00  30.00    6.40  -15.91   -5.57  3.000  0.000 0 1 0 2  2.800  2.800   5.49    0.00     0.00    0.00   1    8.00     0    0    0   225   0.0  1   1    3    0   0.000    0.000    0.000  2
  1   1    2  1 0 2   270  16    98   80   80     0.00000   1.50110 8.85639e-004  1070  1860   5.00  15.00  30.00   16.86  -34.03   -7.40  3.000  0.000 0 1 0 2  2.800  2.800   1.42   71.29     0.00    0.00   1    8.00     0    0    0   225   0.0  1   1    3    0   0.000    0.000    0.000  1
  1   2    2  1 0 2   271  16    98   80   80     0.00000   1.50110 8.85639e-004  1070  1860   5.00  15.00  30.00   16.86  -34.03   -7.40  3.000  0.000 0 1 0 2  2.800  2.800   3.45   71.29     0.00    0.00   1    8.00     0    0    0   225   0.0  1   1    3    0   0.000    0.000    0.000  1
  1   3    2  1 0 2   272  16    98   80   80     0.00000   1.50110 8.85639e-004  1070  1860   5.00  15.00  30.00   16.86  -34.03   -7.40  3.000  0.000 0 1 0 2  2.800  2.800   5.49   71.29     0.00    0.00   1    8.00     0    0    0   225   0.0  1   1    3    0   0.000    0.000    0.000  1
  1   1    2  1 0 2   273  16    98   80   80     0.00000   1.50110 8.85639e-004  1070  1860   5.00  15.00  30.00   16.86  -34.03   -7.40  3.000  0.000 0 1 0 2  2.800  2.800   1.42   71.29     0.00    0.00   1    8.00     0    0    0   225   0.0  1   1    3    0   0.000    0.000    0.000  2
  1   2    2  1 0 2   274  16    98   80   80     0.00000   1.50110 8.85639e-004  1070  1860   5.00  15.00  30.00   16.86  -34.03   -7.40  3.000  0.000 0 1 0 2  2.800  2.800   3.45   71.29     0.00    0.00   1    8.00     0    0    0   225   0.0  1   1    3    0   0.000    0.000    0.000  2
  1   3    2  1 0 2   275  16    98   80   80     0.00000   1.50110 8.85639e-004  1070  1860   5.00  15.00  30.00   16.86  -34.03   -7.40  3.000  0.000 0 1 0 2  2.800  2.800   5.49   71.29     0.00    0.00   1    8.00     0    0    0   225   0.0  1   1    3    0   0.000    0.000    0.000  2
  2   1    2  1 0 2   276  16    98   80   80     0.00000   1.50110 8.85639e-004  1070  1860   5.00  15.00  30.00   15.36  -31.44   -7.14  3.000  0.000 0 1 0 2  2.800  2.800   1.42   71.29     0.00    0.00   1    8.00     0    0    0   225   0.0  1   1    3    0   0.000    0.000    0.000  1
  2   2    2  1 0 2   277  16    98   80   80     0.00000   1.50110 8.85639e-004  1070  1860   5.00  15.00  30.00   15.36  -31.44   -7.14  3.000  0.000 0 1 0 2  2.800  2.800   3.45   71.29     0.00    0.00   1    8.00     0    0    0   225   0.0  1   1    3    0   0.000    0.000    0.000  1
  2   3    2  1 0 2   278  16    98   80   80     0.00000   1.50110 8.85639e-004  1070  1860   5.00  15.00  30.00   15.36  -31.44   -7.14  3.000  0.000 0 1 0 2  2.800  2.800   5.49   71.29     0.00    0.00   1    8.00     0    0    0   225   0.0  1   1    3    0   0.000    0.000    0.000  1
  2   1    2  1 0 2   279  16    98   80   80     0.00000   1.50110 8.85639e-004  1070  1860   5.00  15.00  30.00   15.36  -31.44   -7.14  3.000  0.000 0 1 0 2  2.800  2.800   1.42   71.29     0.00    0.00   1    8.00     0    0    0   225   0.0  1   1    3    0   0.000    0.000    0.000  2
  2   2    2  1 0 2   280  16    98   80   80     0.00000   1.50110 8.85639e-004  1070  1860   5.00  15.00  30.00   15.36  -31.44   -7.14  3.000  0.000 0 1 0 2  2.800  2.800   3.45   71.29     0.00    0.00   1    8.00     0    0    0   225   0.0  1   1    3    0   0.000    0.000    0.000  2
  2   3    2  1 0 2   281  16    98   80   80     0.00000   1.50110 8.85639e-004  1070  1860   5.00  15.00  30.00   15.36  -31.44   -7.14  3.000  0.000 0 1 0 2  2.800  2.800   5.49   71.29     0.00    0.00   1    8.00     0    0    0   225   0.0  1   1    3    0   0.000    0.000    0.000  2
  3   1    2  1 0 2   282  16    98   80   80     0.00000   1.50110 8.85639e-004  1070  1860   5.00  15.00  30.00   13.87  -28.85   -6.88  3.000  0.000 0 1 0 2  2.800  2.800   1.42   71.29     0.00    0.00   1    8.00     0    0    0   225   0.0  1   1    3    0   0.000    0.000    0.000  1
  3   2    2  1 0 2   283  16    98   80   80     0.00000   1.50110 8.85639e-004  1070  1860   5.00  15.00  30.00   13.87  -28.85   -6.88  3.000  0.000 0 1 0 2  2.800  2.800   3.45   71.29     0.00    0.00   1    8.00     0    0    0   225   0.0  1   1    3    0   0.000    0.000    0.000  1
  3   3    2  1 0 2   284  16    98   80   80     0.00000   1.50110 8.85639e-004  1070  1860   5.00  15.00  30.00   13.87  -28.85   -6.88  3.000  0.000 0 1 0 2  2.800  2.800   5.49   71.29     0.00    0.00   1    8.00     0    0    0   225   0.0  1   1    3    0   0.000    0.000    0.000  1
  3   1    2  1 0 2   285  16    98   80   80     0.00000   1.50110 8.85639e-004  1070  1860   5.00  15.00  30.00   13.87  -28.85   -6.88  3.000  0.000 0 1 0 2  2.800  2.800   1.42   71.29     0.00    0.00   1    8.00     0    0    0   225   0.0  1   1    3    0   0.000    0.000    0.000  2
  3   2    2  1 0 2   286  16    98   80   80     0.00000   1.50110 8.85639e-004  1070  1860   5.00  15.00  30.00   13.87  -28.85   -6.88  3.000  0.000 0 1 0 2  2.800  2.800   3.45   71.29     0.00    0.00   1    8.00     0    0    0   225   0.0  1   1    3    0   0.000    0.000    0.000  2
  3   3    2  1 0 2   287  16    98   80   80     0.00000   1.50110 8.85639e-004  1070  1860   5.00  15.00  30.00   13.87  -28.85   -6.88  3.000  0.000 0 1 0 2  2.800  2.800   5.49   71.29     0.00    0.00   1    8.00     0    0    0   225   0.0  1   1    3    0   0.000    0.000    0.000  2
  4   1    2  1 0 2   288  16    98   80   80     0.00000   1.50110 8.85639e-004  1070  1860   5.00  15.00  30.00   12.37  -26.26   -6.61  3.000  0.000 0 1 0 2  2.800  2.800   1.42   71.29     0.00    0.00   1    8.00     0    0    0   225   0.0  1   1    3    0   0.000    0.000    0.000  1
  4   2    2  1 0 2   289  16    98   80   80     0.00000   1.50110 8.85639e-004  1070  1860   5.00  15.00  30.00   12.37  -26.26   -6.61  3.000  0.000 0 1 0 2  2.800  2.800   3.45   71.29     0.00    0.00   1    8.00     0    0    0   225   0.0  1   1    3    0   0.000    0.000    0.000  1
  4   3    2  1 0 2   290  16    98   80   80     0.00000   1.50110 8.85639e-004  1070  1860   5.00  15.00  30.00   12.37  -26.26   -6.61  3.000  0.000 0 1 0 2  2.800  2.800   5.49   71.29     0.00    0.00   1    8.00     0    0    0   225   0.0  1   1    3    0   0.000    0.000    0.000  1
  4   1    2  1 0 2   291  16    98   80   80     0.00000   1.50110 8.85639e-004  1070  1860   5.00  15.00  30.00   12.37  -26.26   -6.61  3.000  0.000 0 1 0 2  2.800  2.800   1.42   71.29     0.00    0.00   1    8.00     0    0    0   225   0.0  1   1    3    0   0.000    0.000    0.000  2
  4   2    2  1 0 2   292  16    98   80   80     0.00000   1.50110 8.85639e-004  1070  1860   5.00  15.00  30.00   12.37  -26.26   -6.61  3.000  0.000 0 1 0 2  2.800  2.800   3.45   71.29     0.00    0.00   1    8.00     0    0    0   225   0.0  1   1    3    0   0.000    0.000    0.000  2
  4   3    2  1 0 2   293  16    98   80   80     0.00000   1.50110 8.85639e-004  1070  1860   5.00  15.00  30.00   12.37  -26.26   -6.61  3.000  0.000 0 1 0 2  2.800  2.800   5.49   71.29     0.00    0.00   1    8.00     0    0    0   225   0.0  1   1    3    0   0.000    0.000    0.000  2
  5   1    2  1 0 2   294  16    98   80   80     0.00000   1.50110 8.85639e-004  1070  1860   5.00  15.00  30.00   10.88  -23.68   -6.35  3.000  0.000 0 1 0 2  2.800  2.800   1.42   71.29     0.00    0.00   1    8.00     0    0    0   225   0.0  1   1    3    0   0.000    0.000    0.000  1
  5   2    2  1 0 2   295  16    98   80   80     0.00000   1.50110 8.85639e-004  1070  1860   5.00  15.00  30.00   10.88  -23.68   -6.35  3.000  0.000 0 1 0 2  2.800  2.800   3.45   71.29     0.00    0.00   1    8.00     0    0    0   225   0.0  1   1    3    0   0.000    0.000    0.000  1
  5   3    2  1 0 2   296  16    98   80   80     0.00000   1.50110 8.85639e-004  1070  1860   5.00  15.00  30.00   10.88  -23.68   -6.35  3.000  0.000 0 1 0 2  2.800  2.800   5.49   71.29     0.00    0.00   1    8.00     0    0    0   225   0.0  1   1    3    0   0.000    0.000    0.000  1
  5   1    2  1 0 2   297  16    98   80   80     0.00000   1.50110 8.85639e-004  1070  1860   5.00  15.00  30.00   10.88  -23.68   -6.35  3.000  0.000 0 1 0 2  2.800  2.800   1.42   71.29     0.00    0.00   1    8.00     0    0    0   225   0.0  1   1    3    0   0.000    0.000    0.000  2
  5   2    2  1 0 2   298  16    98   80   80     0.00000   1.50110 8.85639e-004  1070  1860   5.00  15.00  30.00   10.88  -23.68   -6.35  3.000  0.000 0 1 0 2  2.800  2.800   3.45   71.29     0.00    0.00   1    8.00     0    0    0   225   0.0  1   1    3    0   0.000    0.000    0.000  2
  5   3    2  1 0 2   299  16    98   80   80     0.00000   1.50110 8.85639e-004  1070  1860   5.00  15.00  30.00   10.88  -23.68   -6.35  3.000  0.000 0 1 0 2  2.800  2.800   5.49   71.29     0.00    0.00   1    8.00     0    0    0   225   0.0  1   1    3    0   0.000    0.000    0.000  2
  6   1    2  1 0 2   300  16    98   80   80     0.00000   1.50110 8.85639e-004  1070  1860   5.00  15.00  30.00    9.39  -21.09   -6.09  3.000  0.000 0 1 0 2  2.800  2.800   1.42   71.29     0.00    0.00   1    8.00     0    0    0   225   0.0  1   1    3    0   0.000    0.000    0.000  1
  6   2    2  1 0 2   301  16    98   80   80     0.00000   1.50110 8.85639e-004  1070  1860   5.00  15.00  30.00    9.39  -21.09   -6.09  3.000  0.000 0 1 0 2  2.800  2.800   3.45   71.29     0.00    0.00   1    8.00     0    0    0   225   0.0  1   1    3    0   0.000    0.000    0.000  1
  6   3    2  1 0 2   302  16    98   80   80     0.00000   1.50110 8.85639e-004  1070  1860   5.00  15.00  30.00    9.39  -21.09   -6.09  3.000  0.000 0 1 0 2  2.800  2.800   5.49   71.29     0.00    0.00   1    8.00     0    0    0   225   0.0  1   1    3    0   0.000    0.000    0.000  1
  6   1    2  1 0 2   303  16    98   80   80     0.00000   1.50110 8.85639e-004  1070  1860   5.00  15.00  30.00    9.39  -21.09   -6.09  3.000  0.000 0 1 0 2  2.800  2.800   1.42   71.29     0.00    0.00   1    8.00     0    0    0   225   0.0  1   1    3    0   0.000    0.000    0.000  2
  6   2    2  1 0 2   304  16    98   80   80     0.00000   1.50110 8.85639e-004  1070  1860   5.00  15.00  30.00    9.39  -21.09   -6.09  3.000  0.000 0 1 0 2  2.800  2.800   3.45   71.29     0.00    0.00   1    8.00     0    0    0   225   0.0  1   1    3    0   0.000    0.000    0.000  2
  6   3    2  1 0 2   305  16    98   80   80     0.00000   1.50110 8.85639e-004  1070  1860   5.00  15.00  30.00    9.39  -21.09   -6.09  3.000  0.000 0 1 0 2  2.800  2.800   5.49   71.29     0.00    0.00   1    8.00     0    0    0   225   0.0  1   1    3    0   0.000    0.000    0.000  2
