# === DATA DESCRIPTION FILE ======================================================
#
# CAUTION - Investigational device.
# Limited by Federal Law to investigational use.
#
# Dataset name: H:\Export\05aug14_test_samples_11_1
#
# CLINICAL TRYOUT             Research image export tool     V4.2
#
# === GENERAL INFORMATION ========================================================
#
.    Patient name                       :   05aug14test
.    Examination name                   :   test
.    Protocol name                      :   WIP fieldmap SENSE
.    Examination date/time              :   2014.08.05 / 11:27:34
.    Series Type                        :   Image   MRSERIES
.    Acquisition nr                     :   11
.    Reconstruction nr                  :   1
.    Scan Duration [sec]                :   11.3
.    Max. number of cardiac phases      :   1
.    Max. number of echoes              :   1
.    Max. number of slices/locations    :   10
.    Max. number of dynamics            :   1
.    Max. number of mixes               :   1
.    Patient position                   :   Head First Supine
.    Preparation direction              :   Right-Left
.    Technique                          :   FFE
.    Scan resolution  (x, y)            :   76  62
.    Scan mode                          :   MS
.    Repetition time [ms]               :   188.384  
.    FOV (ap,fh,rl) [mm]                :   130.000  120.970  154.375
.    Water Fat shift [pixels]           :   0.347
.    Angulation midslice(ap,fh,rl)[degr]:   -1.979  0.546  0.019
.    Off Centre midslice(ap,fh,rl) [mm] :   -18.805  22.157  -17.977
.    Flow compensation <0=no 1=yes> ?   :   0
.    Presaturation     <0=no 1=yes> ?   :   0
.    Phase encoding velocity [cm/sec]   :   0.000000  0.000000  0.000000
.    MTC               <0=no 1=yes> ?   :   0
.    SPIR              <0=no 1=yes> ?   :   1
.    EPI factor        <0,1=no EPI>     :   1
.    Dynamic scan      <0=no 1=yes> ?   :   0
.    Diffusion         <0=no 1=yes> ?   :   0
.    Diffusion echo time [ms]           :   0.0000
.    Max. number of diffusion values    :   1
.    Max. number of gradient orients    :   1
.    Number of label types   <0=no ASL> :   0
#
# === PIXEL VALUES =============================================================
#  PV = pixel value in REC file, FP = floating point value, DV = displayed value on console
#  RS = rescale slope,           RI = rescale intercept,    SS = scale slope
#  DV = PV * RS + RI             FP = DV / (RS * SS)
#
# === IMAGE INFORMATION DEFINITION =============================================
#  The rest of this file contains ONE line per image, this line contains the following information:
#
#  slice number                             (integer)
#  echo number                              (integer)
#  dynamic scan number                      (integer)
#  cardiac phase number                     (integer)
#  image_type_mr                            (integer)
#  scanning sequence                        (integer)
#  index in REC file (in images)            (integer)
#  image pixel size (in bits)               (integer)
#  scan percentage                          (integer)
#  recon resolution (x y)                   (2*integer)
#  rescale intercept                        (float)
#  rescale slope                            (float)
#  scale slope                              (float)
#  window center                            (integer)
#  window width                             (integer)
#  image angulation (ap,fh,rl in degrees )  (3*float)
#  image offcentre (ap,fh,rl in mm )        (3*float)
#  slice thickness (in mm )                 (float)
#  slice gap (in mm )                       (float)
#  image_display_orientation                (integer)
#  slice orientation ( TRA/SAG/COR )        (integer)
#  fmri_status_indication                   (integer)
#  image_type_ed_es  (end diast/end syst)   (integer)
#  pixel spacing (x,y) (in mm)              (2*float)
#  echo_time                                (float)
#  dyn_scan_begin_time                      (float)
#  trigger_time                             (float)
#  diffusion_b_factor                       (float)
#  number of averages                       (integer)
#  image_flip_angle (in degrees)            (float)
#  cardiac frequency   (bpm)                (integer)
#  minimum RR-interval (in ms)              (integer)
#  maximum RR-interval (in ms)              (integer)
#  TURBO factor  <0=no turbo>               (integer)
#  Inversion delay (in ms)                  (float)
#  diffusion b value number    (imagekey!)  (integer)
#  gradient orientation number (imagekey!)  (integer)
#  contrast type                            (string)
#  diffusion anisotropy type                (string)
#  diffusion (ap, fh, rl)                   (3*float)
#  label type (ASL)            (imagekey!)  (integer)
#
# === IMAGE INFORMATION ==========================================================
#  sl ec  dyn ph ty    idx pix scan% rec size                (re)scale              window        angulation              offcentre        thick   gap   info      spacing     echo     dtime   ttime    diff  avg  flip    freq   RR-int  turbo delay b grad cont anis         diffusion       L.ty

  1   1    1  1 0 2     0  16    81   80   80     0.00000  10.40049 1.18623e-003  1070  1860  -1.98   0.55   0.02  -18.79  -33.29  -16.06 10.000  2.330 0 1 0 2  1.912  1.912   7.00    0.00     0.00    0.00   1   55.00     0    0    0     1   0.0  1   1    7    0   0.000    0.000    0.000  1
  2   1    1  1 0 2     1  16    81   80   80     0.00000  10.40049 1.18623e-003  3042  5288  -1.98   0.55   0.02  -18.79  -20.97  -16.49 10.000  2.330 0 1 0 2  1.912  1.912   7.00    0.00     0.00    0.00   1   55.00     0    0    0     1   0.0  1   1    7    0   0.000    0.000    0.000  1
  3   1    1  1 0 2     2  16    81   80   80     0.00000  10.40049 1.18623e-003  2802  4871  -1.98   0.55   0.02  -18.80   -8.65  -16.91 10.000  2.330 0 1 0 2  1.912  1.912   7.00    0.00     0.00    0.00   1   55.00     0    0    0     1   0.0  1   1    7    0   0.000    0.000    0.000  1
  4   1    1  1 0 2     3  16    81   80   80     0.00000  10.40049 1.18623e-003  3542  6157  -1.98   0.55   0.02  -18.80    3.67  -17.34 10.000  2.330 0 1 0 2  1.912  1.912   7.00    0.00     0.00    0.00   1   55.00     0    0    0     1   0.0  1   1    7    0   0.000    0.000    0.000  1
  5   1    1  1 0 2     4  16    81   80   80     0.00000  10.40049 1.18623e-003  3267  5679  -1.98   0.55   0.02  -18.80   16.00  -17.76 10.000  2.330 0 1 0 2  1.912  1.912   7.00    0.00     0.00    0.00   1   55.00     0    0    0     1   0.0  1   1    7    0   0.000    0.000    0.000  1
  6   1    1  1 0 2     5  16    81   80   80     0.00000  10.40049 1.18623e-003  1350  2346  -1.98   0.55   0.02  -18.81   28.32  -18.19 10.000  2.330 0 1 0 2  1.912  1.912   7.00    0.00     0.00    0.00   1   55.00     0    0    0     1   0.0  1   1    7    0   0.000    0.000    0.000  1
  7   1    1  1 0 2     6  16    81   80   80     0.00000  10.40049 1.18623e-003   536   931  -1.98   0.55   0.02  -18.81   40.64  -18.62 10.000  2.330 0 1 0 2  1.912  1.912   7.00    0.00     0.00    0.00   1   55.00     0    0    0     1   0.0  1   1    7    0   0.000    0.000    0.000  1
  8   1    1  1 0 2     7  16    81   80   80     0.00000  10.40049 1.18623e-003   516   897  -1.98   0.55   0.02  -18.82   52.96  -19.04 10.000  2.330 0 1 0 2  1.912  1.912   7.00    0.00     0.00    0.00   1   55.00     0    0    0     1   0.0  1   1    7    0   0.000    0.000    0.000  1
  9   1    1  1 0 2     8  16    81   80   80     0.00000  10.40049 1.18623e-003   464   807  -1.98   0.55   0.02  -18.82   65.29  -19.47 10.000  2.330 0 1 0 2  1.912  1.912   7.00    0.00     0.00    0.00   1   55.00     0    0    0     1   0.0  1   1    7    0   0.000    0.000    0.000  1
 10   1    1  1 0 2     9  16    81   80   80     0.00000  10.40049 1.18623e-003   265   461  -1.98   0.55   0.02  -18.82   77.61  -19.89 10.000  2.330 0 1 0 2  1.912  1.912   7.00    0.00     0.00    0.00   1   55.00     0    0    0     1   0.0  1   1    7    0   0.000    0.000    0.000  1
  1   1    1  1 3 4    10  16    81   80   80  -500.00000   0.24420 4.09500e+000     0  1000  -1.98   0.55   0.02  -18.79  -33.29  -16.06 10.000  2.330 0 1 0 2  1.912  1.912   7.00    0.00     0.00    0.00   1   55.00     0    0    0     1   0.0  1   1    7    0   0.000    0.000    0.000  1
  2   1    1  1 3 4    11  16    81   80   80  -500.00000   0.24420 4.09500e+000     0  1000  -1.98   0.55   0.02  -18.79  -20.97  -16.49 10.000  2.330 0 1 0 2  1.912  1.912   7.00    0.00     0.00    0.00   1   55.00     0    0    0     1   0.0  1   1    7    0   0.000    0.000    0.000  1
  3   1    1  1 3 4    12  16    81   80   80  -500.00000   0.24420 4.09500e+000     0  1000  -1.98   0.55   0.02  -18.80   -8.65  -16.91 10.000  2.330 0 1 0 2  1.912  1.912   7.00    0.00     0.00    0.00   1   55.00     0    0    0     1   0.0  1   1    7    0   0.000    0.000    0.000  1
  4   1    1  1 3 4    13  16    81   80   80  -500.00000   0.24420 4.09500e+000     0  1000  -1.98   0.55   0.02  -18.80    3.67  -17.34 10.000  2.330 0 1 0 2  1.912  1.912   7.00    0.00     0.00    0.00   1   55.00     0    0    0     1   0.0  1   1    7    0   0.000    0.000    0.000  1
  5   1    1  1 3 4    14  16    81   80   80  -500.00000   0.24420 4.09500e+000     0  1000  -1.98   0.55   0.02  -18.80   16.00  -17.76 10.000  2.330 0 1 0 2  1.912  1.912   7.00    0.00     0.00    0.00   1   55.00     0    0    0     1   0.0  1   1    7    0   0.000    0.000    0.000  1
  6   1    1  1 3 4    15  16    81   80   80  -500.00000   0.24420 4.09500e+000     0  1000  -1.98   0.55   0.02  -18.81   28.32  -18.19 10.000  2.330 0 1 0 2  1.912  1.912   7.00    0.00     0.00    0.00   1   55.00     0    0    0     1   0.0  1   1    7    0   0.000    0.000    0.000  1
  7   1    1  1 3 4    16  16    81   80   80  -500.00000   0.24420 4.09500e+000     0  1000  -1.98   0.55   0.02  -18.81   40.64  -18.62 10.000  2.330 0 1 0 2  1.912  1.912   7.00    0.00     0.00    0.00   1   55.00     0    0    0     1   0.0  1   1    7    0   0.000    0.000    0.000  1
  8   1    1  1 3 4    17  16    81   80   80  -500.00000   0.24420 4.09500e+000     0  1000  -1.98   0.55   0.02  -18.82   52.96  -19.04 10.000  2.330 0 1 0 2  1.912  1.912   7.00    0.00     0.00    0.00   1   55.00     0    0    0     1   0.0  1   1    7    0   0.000    0.000    0.000  1
  9   1    1  1 3 4    18  16    81   80   80  -500.00000   0.24420 4.09500e+000     0  1000  -1.98   0.55   0.02  -18.82   65.29  -19.47 10.000  2.330 0 1 0 2  1.912  1.912   7.00    0.00     0.00    0.00   1   55.00     0    0    0     1   0.0  1   1    7    0   0.000    0.000    0.000  1
 10   1    1  1 3 4    19  16    81   80   80  -500.00000   0.24420 4.09500e+000     0  1000  -1.98   0.55   0.02  -18.82   77.61  -19.89 10.000  2.330 0 1 0 2  1.912  1.912   7.00    0.00     0.00    0.00   1   55.00     0    0    0     1   0.0  1   1    7    0   0.000    0.000    0.000  1

# === END OF DATA DESCRIPTION FILE ===============================================
