# === DATA DESCRIPTION FILE ======================================================
#
# CAUTION - Investigational device.
# Limited by Federal Law to investigational use.
#
# Dataset name: E:\\Export\\Phantom_EPI_3mm_sag_15AP_SENSE_13_1
#
# CLINICAL TRYOUT             Research image export tool     V4.2
#
# === GENERAL INFORMATION ========================================================
#
.    Patient name                       :   Phantom
.    Examination name                   :   Orientation Par Rec
.    Protocol name                      :   EPI_3mm_sag_15AP SENSE
.    Examination date/time              :   2014.08.05 / 11:08:56
.    Series Type                        :   Image   MRSERIES
.    Acquisition nr                     :   13
.    Reconstruction nr                  :   1
.    Scan Duration [sec]                :   7.97
.    Max. number of cardiac phases      :   1
.    Max. number of echoes              :   1
.    Max. number of slices/locations    :   40
.    Max. number of dynamics            :   1
.    Max. number of mixes               :   1
.    Patient position                   :   Head First Supine
.    Preparation direction              :   Anterior-Posterior
.    Technique                          :   FEEPI
.    Scan resolution  (x, y)            :   80  78
.    Scan mode                          :   MS
.    Repetition time [ms]               :   2000.000  
.    FOV (ap,fh,rl) [mm]                :   240.000  240.000  131.700
.    Water Fat shift [pixels]           :   7.231
.    Angulation midslice(ap,fh,rl)[degr]:   15.000  0.000  0.000
.    Off Centre midslice(ap,fh,rl) [mm] :   0.000  0.000  0.000
.    Flow compensation <0=no 1=yes> ?   :   0
.    Presaturation     <0=no 1=yes> ?   :   0
.    Phase encoding velocity [cm/sec]   :   0.000000  0.000000  0.000000
.    MTC               <0=no 1=yes> ?   :   0
.    SPIR              <0=no 1=yes> ?   :   0
.    EPI factor        <0,1=no EPI>     :   39
.    Dynamic scan      <0=no 1=yes> ?   :   1
.    Diffusion         <0=no 1=yes> ?   :   0
.    Diffusion echo time [ms]           :   0.0000
.    Max. number of diffusion values    :   1
.    Max. number of gradient orients    :   1
.    Number of label types   <0=no ASL> :   0
#
# === PIXEL VALUES =============================================================
#  PV = pixel value in REC file, FP = floating point value, DV = displayed value on console
#  RS = rescale slope,           RI = rescale intercept,    SS = scale slope
#  DV = PV * RS + RI             FP = DV / (RS * SS)
#
# === IMAGE INFORMATION DEFINITION =============================================
#  The rest of this file contains ONE line per image, this line contains the following information:
#
#  slice number                             (integer)
#  echo number                              (integer)
#  dynamic scan number                      (integer)
#  cardiac phase number                     (integer)
#  image_type_mr                            (integer)
#  scanning sequence                        (integer)
#  index in REC file (in images)            (integer)
#  image pixel size (in bits)               (integer)
#  scan percentage                          (integer)
#  recon resolution (x y)                   (2*integer)
#  rescale intercept                        (float)
#  rescale slope                            (float)
#  scale slope                              (float)
#  window center                            (integer)
#  window width                             (integer)
#  image angulation (ap,fh,rl in degrees )  (3*float)
#  image offcentre (ap,fh,rl in mm )        (3*float)
#  slice thickness (in mm )                 (float)
#  slice gap (in mm )                       (float)
#  image_display_orientation                (integer)
#  slice orientation ( TRA/SAG/COR )        (integer)
#  fmri_status_indication                   (integer)
#  image_type_ed_es  (end diast/end syst)   (integer)
#  pixel spacing (x,y) (in mm)              (2*float)
#  echo_time                                (float)
#  dyn_scan_begin_time                      (float)
#  trigger_time                             (float)
#  diffusion_b_factor                       (float)
#  number of averages                       (integer)
#  image_flip_angle (in degrees)            (float)
#  cardiac frequency   (bpm)                (integer)
#  minimum RR-interval (in ms)              (integer)
#  maximum RR-interval (in ms)              (integer)
#  TURBO factor  <0=no turbo>               (integer)
#  Inversion delay (in ms)                  (float)
#  diffusion b value number    (imagekey!)  (integer)
#  gradient orientation number (imagekey!)  (integer)
#  contrast type                            (string)
#  diffusion anisotropy type                (string)
#  diffusion (ap, fh, rl)                   (3*float)
#  label type (ASL)            (imagekey!)  (integer)
#
# === IMAGE INFORMATION ==========================================================
#  sl ec  dyn ph ty    idx pix scan% rec size                (re)scale              window        angulation              offcentre        thick   gap   info      spacing     echo     dtime   ttime    diff  avg  flip    freq   RR-int  turbo delay b grad cont anis         diffusion       L.ty

  1   1    1  1 0 2     0  16   100   80   80     0.00000 379.58487 1.53218e-002  1070  1860  15.00  -0.00  -0.00    0.00  -16.66   62.16  3.000  0.300 0 2 0 2  3.000  3.000   9.66    0.00     0.00    0.00   1   90.00     0    0    0    39   0.0  1   1    4    0   0.000    0.000    0.000  1
  2   1    1  1 0 2     1  16   100   80   80     0.00000 379.58487 1.53218e-002  1576  2740  15.00  -0.00  -0.00    0.00  -15.80   58.97  3.000  0.300 0 2 0 2  3.000  3.000   9.66    0.00     0.00    0.00   1   90.00     0    0    0    39   0.0  1   1    4    0   0.000    0.000    0.000  1
  3   1    1  1 0 2     2  16   100   80   80     0.00000 379.58487 1.53218e-002 32199 55971  15.00  -0.00  -0.00    0.00  -14.95   55.78  3.000  0.300 0 2 0 2  3.000  3.000   9.66    0.00     0.00    0.00   1   90.00     0    0    0    39   0.0  1   1    4    0   0.000    0.000    0.000  1
  4   1    1  1 0 2     3  16   100   80   80     0.00000 379.58487 1.53218e-002 49226 85570  15.00  -0.00  -0.00    0.00  -14.09   52.59  3.000  0.300 0 2 0 2  3.000  3.000   9.66    0.00     0.00    0.00   1   90.00     0    0    0    39   0.0  1   1    4    0   0.000    0.000    0.000  1
  5   1    1  1 0 2     4  16   100   80   80     0.00000 379.58487 1.53218e-002 31645 55008  15.00  -0.00  -0.00    0.00  -13.24   49.41  3.000  0.300 0 2 0 2  3.000  3.000   9.66    0.00     0.00    0.00   1   90.00     0    0    0    39   0.0  1   1    4    0   0.000    0.000    0.000  1
  6   1    1  1 0 2     5  16   100   80   80     0.00000 379.58487 1.53218e-002 36888 64124  15.00  -0.00  -0.00    0.00  -12.38   46.22  3.000  0.300 0 2 0 2  3.000  3.000   9.66    0.00     0.00    0.00   1   90.00     0    0    0    39   0.0  1   1    4    0   0.000    0.000    0.000  1
  7   1    1  1 0 2     6  16   100   80   80     0.00000 379.58487 1.53218e-002 12781 22217  15.00  -0.00  -0.00    0.00  -11.53   43.03  3.000  0.300 0 2 0 2  3.000  3.000   9.66    0.00     0.00    0.00   1   90.00     0    0    0    39   0.0  1   1    4    0   0.000    0.000    0.000  1
  8   1    1  1 0 2     7  16   100   80   80     0.00000 379.58487 1.53218e-002 233716 406273  15.00  -0.00  -0.00    0.00  -10.68   39.84  3.000  0.300 0 2 0 2  3.000  3.000   9.66    0.00     0.00    0.00   1   90.00     0    0    0    39   0.0  1   1    4    0   0.000    0.000    0.000  1
  9   1    1  1 0 2     8  16   100   80   80     0.00000 379.58487 1.53218e-002 256318 445562  15.00  -0.00  -0.00    0.00   -9.82   36.66  3.000  0.300 0 2 0 2  3.000  3.000   9.66    0.00     0.00    0.00   1   90.00     0    0    0    39   0.0  1   1    4    0   0.000    0.000    0.000  1
 10   1    1  1 0 2     9  16   100   80   80     0.00000 379.58487 1.53218e-002 262949 457089  15.00  -0.00  -0.00    0.00   -8.97   33.47  3.000  0.300 0 2 0 2  3.000  3.000   9.66    0.00     0.00    0.00   1   90.00     0    0    0    39   0.0  1   1    4    0   0.000    0.000    0.000  1
 11   1    1  1 0 2    10  16   100   80   80     0.00000 379.58487 1.53218e-002 274600 477342  15.00  -0.00  -0.00    0.00   -8.11   30.28  3.000  0.300 0 2 0 2  3.000  3.000   9.66    0.00     0.00    0.00   1   90.00     0    0    0    39   0.0  1   1    4    0   0.000    0.000    0.000  1
 12   1    1  1 0 2    11  16   100   80   80     0.00000 379.58487 1.53218e-002 279784 486353  15.00  -0.00  -0.00    0.00   -7.26   27.09  3.000  0.300 0 2 0 2  3.000  3.000   9.66    0.00     0.00    0.00   1   90.00     0    0    0    39   0.0  1   1    4    0   0.000    0.000    0.000  1
 13   1    1  1 0 2    12  16   100   80   80     0.00000 379.58487 1.53218e-002 285642 496536  15.00  -0.00  -0.00    0.00   -6.41   23.91  3.000  0.300 0 2 0 2  3.000  3.000   9.66    0.00     0.00    0.00   1   90.00     0    0    0    39   0.0  1   1    4    0   0.000    0.000    0.000  1
 14   1    1  1 0 2    13  16   100   80   80     0.00000 379.58487 1.53218e-002 289907 503951  15.00  -0.00  -0.00    0.00   -5.55   20.72  3.000  0.300 0 2 0 2  3.000  3.000   9.66    0.00     0.00    0.00   1   90.00     0    0    0    39   0.0  1   1    4    0   0.000    0.000    0.000  1
 15   1    1  1 0 2    14  16   100   80   80     0.00000 379.58487 1.53218e-002 300159 521772  15.00  -0.00  -0.00    0.00   -4.70   17.53  3.000  0.300 0 2 0 2  3.000  3.000   9.66    0.00     0.00    0.00   1   90.00     0    0    0    39   0.0  1   1    4    0   0.000    0.000    0.000  1
 16   1    1  1 0 2    15  16   100   80   80     0.00000 379.58487 1.53218e-002 302576 525973  15.00  -0.00  -0.00    0.00   -3.84   14.34  3.000  0.300 0 2 0 2  3.000  3.000   9.66    0.00     0.00    0.00   1   90.00     0    0    0    39   0.0  1   1    4    0   0.000    0.000    0.000  1
 17   1    1  1 0 2    16  16   100   80   80     0.00000 379.58487 1.53218e-002 312170 542651  15.00  -0.00  -0.00    0.00   -2.99   11.16  3.000  0.300 0 2 0 2  3.000  3.000   9.66    0.00     0.00    0.00   1   90.00     0    0    0    39   0.0  1   1    4    0   0.000    0.000    0.000  1
 18   1    1  1 0 2    17  16   100   80   80     0.00000 379.58487 1.53218e-002 316827 550746  15.00  -0.00  -0.00    0.00   -2.14    7.97  3.000  0.300 0 2 0 2  3.000  3.000   9.66    0.00     0.00    0.00   1   90.00     0    0    0    39   0.0  1   1    4    0   0.000    0.000    0.000  1
 19   1    1  1 0 2    18  16   100   80   80     0.00000 379.58487 1.53218e-002 318740 554072  15.00  -0.00  -0.00    0.00   -1.28    4.78  3.000  0.300 0 2 0 2  3.000  3.000   9.66    0.00     0.00    0.00   1   90.00     0    0    0    39   0.0  1   1    4    0   0.000    0.000    0.000  1
 20   1    1  1 0 2    19  16   100   80   80     0.00000 379.58487 1.53218e-002 313900 545657  15.00  -0.00  -0.00    0.00   -0.43    1.59  3.000  0.300 0 2 0 2  3.000  3.000   9.66    0.00     0.00    0.00   1   90.00     0    0    0    39   0.0  1   1    4    0   0.000    0.000    0.000  1
 21   1    1  1 0 2    20  16   100   80   80     0.00000 379.58487 1.53218e-002 317106 551230  15.00  -0.00  -0.00    0.00    0.43   -1.59  3.000  0.300 0 2 0 2  3.000  3.000   9.66    0.00     0.00    0.00   1   90.00     0    0    0    39   0.0  1   1    4    0   0.000    0.000    0.000  1
 22   1    1  1 0 2    21  16   100   80   80     0.00000 379.58487 1.53218e-002 322465 560547  15.00  -0.00  -0.00    0.00    1.28   -4.78  3.000  0.300 0 2 0 2  3.000  3.000   9.66    0.00     0.00    0.00   1   90.00     0    0    0    39   0.0  1   1    4    0   0.000    0.000    0.000  1
 23   1    1  1 0 2    22  16   100   80   80     0.00000 379.58487 1.53218e-002 323730 562745  15.00  -0.00  -0.00    0.00    2.14   -7.97  3.000  0.300 0 2 0 2  3.000  3.000   9.66    0.00     0.00    0.00   1   90.00     0    0    0    39   0.0  1   1    4    0   0.000    0.000    0.000  1
 24   1    1  1 0 2    23  16   100   80   80     0.00000 379.58487 1.53218e-002 319532 555448  15.00  -0.00  -0.00    0.00    2.99  -11.16  3.000  0.300 0 2 0 2  3.000  3.000   9.66    0.00     0.00    0.00   1   90.00     0    0    0    39   0.0  1   1    4    0   0.000    0.000    0.000  1
 25   1    1  1 0 2    24  16   100   80   80     0.00000 379.58487 1.53218e-002 325121 565164  15.00  -0.00  -0.00    0.00    3.84  -14.34  3.000  0.300 0 2 0 2  3.000  3.000   9.66    0.00     0.00    0.00   1   90.00     0    0    0    39   0.0  1   1    4    0   0.000    0.000    0.000  1
 26   1    1  1 0 2    25  16   100   80   80     0.00000 379.58487 1.53218e-002 323653 562611  15.00  -0.00  -0.00    0.00    4.70  -17.53  3.000  0.300 0 2 0 2  3.000  3.000   9.66    0.00     0.00    0.00   1   90.00     0    0    0    39   0.0  1   1    4    0   0.000    0.000    0.000  1
 27   1    1  1 0 2    26  16   100   80   80     0.00000 379.58487 1.53218e-002 326501 567562  15.00  -0.00  -0.00    0.00    5.55  -20.72  3.000  0.300 0 2 0 2  3.000  3.000   9.66    0.00     0.00    0.00   1   90.00     0    0    0    39   0.0  1   1    4    0   0.000    0.000    0.000  1
 28   1    1  1 0 2    27  16   100   80   80     0.00000 379.58487 1.53218e-002 325199 565300  15.00  -0.00  -0.00    0.00    6.41  -23.91  3.000  0.300 0 2 0 2  3.000  3.000   9.66    0.00     0.00    0.00   1   90.00     0    0    0    39   0.0  1   1    4    0   0.000    0.000    0.000  1
 29   1    1  1 0 2    28  16   100   80   80     0.00000 379.58487 1.53218e-002 320664 557416  15.00  -0.00  -0.00    0.00    7.26  -27.09  3.000  0.300 0 2 0 2  3.000  3.000   9.66    0.00     0.00    0.00   1   90.00     0    0    0    39   0.0  1   1    4    0   0.000    0.000    0.000  1
 30   1    1  1 0 2    29  16   100   80   80     0.00000 379.58487 1.53218e-002 317113 551243  15.00  -0.00  -0.00    0.00    8.11  -30.28  3.000  0.300 0 2 0 2  3.000  3.000   9.66    0.00     0.00    0.00   1   90.00     0    0    0    39   0.0  1   1    4    0   0.000    0.000    0.000  1
 31   1    1  1 0 2    30  16   100   80   80     0.00000 379.58487 1.53218e-002 305591 531214  15.00  -0.00  -0.00    0.00    8.97  -33.47  3.000  0.300 0 2 0 2  3.000  3.000   9.66    0.00     0.00    0.00   1   90.00     0    0    0    39   0.0  1   1    4    0   0.000    0.000    0.000  1
 32   1    1  1 0 2    31  16   100   80   80     0.00000 379.58487 1.53218e-002 303485 527553  15.00  -0.00  -0.00    0.00    9.82  -36.66  3.000  0.300 0 2 0 2  3.000  3.000   9.66    0.00     0.00    0.00   1   90.00     0    0    0    39   0.0  1   1    4    0   0.000    0.000    0.000  1
 33   1    1  1 0 2    32  16   100   80   80     0.00000 379.58487 1.53218e-002 300166 521784  15.00  -0.00  -0.00    0.00   10.68  -39.84  3.000  0.300 0 2 0 2  3.000  3.000   9.66    0.00     0.00    0.00   1   90.00     0    0    0    39   0.0  1   1    4    0   0.000    0.000    0.000  1
 34   1    1  1 0 2    33  16   100   80   80     0.00000 379.58487 1.53218e-002 294512 511956  15.00  -0.00  -0.00    0.00   11.53  -43.03  3.000  0.300 0 2 0 2  3.000  3.000   9.66    0.00     0.00    0.00   1   90.00     0    0    0    39   0.0  1   1    4    0   0.000    0.000    0.000  1
 35   1    1  1 0 2    34  16   100   80   80     0.00000 379.58487 1.53218e-002 283583 492958  15.00  -0.00  -0.00    0.00   12.38  -46.22  3.000  0.300 0 2 0 2  3.000  3.000   9.66    0.00     0.00    0.00   1   90.00     0    0    0    39   0.0  1   1    4    0   0.000    0.000    0.000  1
 36   1    1  1 0 2    35  16   100   80   80     0.00000 379.58487 1.53218e-002 279239 485407  15.00  -0.00  -0.00    0.00   13.24  -49.41  3.000  0.300 0 2 0 2  3.000  3.000   9.66    0.00     0.00    0.00   1   90.00     0    0    0    39   0.0  1   1    4    0   0.000    0.000    0.000  1
 37   1    1  1 0 2    36  16   100   80   80     0.00000 379.58487 1.53218e-002 276832 481222  15.00  -0.00  -0.00    0.00   14.09  -52.59  3.000  0.300 0 2 0 2  3.000  3.000   9.66    0.00     0.00    0.00   1   90.00     0    0    0    39   0.0  1   1    4    0   0.000    0.000    0.000  1
 38   1    1  1 0 2    37  16   100   80   80     0.00000 379.58487 1.53218e-002 66087 114880  15.00  -0.00  -0.00    0.00   14.95  -55.78  3.000  0.300 0 2 0 2  3.000  3.000   9.66    0.00     0.00    0.00   1   90.00     0    0    0    39   0.0  1   1    4    0   0.000    0.000    0.000  1
 39   1    1  1 0 2    38  16   100   80   80     0.00000 379.58487 1.53218e-002  1938  3369  15.00  -0.00  -0.00    0.00   15.80  -58.97  3.000  0.300 0 2 0 2  3.000  3.000   9.66    0.00     0.00    0.00   1   90.00     0    0    0    39   0.0  1   1    4    0   0.000    0.000    0.000  1
 40   1    1  1 0 2    39  16   100   80   80     0.00000 379.58487 1.53218e-002  1055  1834  15.00  -0.00  -0.00    0.00   16.66  -62.16  3.000  0.300 0 2 0 2  3.000  3.000   9.66    0.00     0.00    0.00   1   90.00     0    0    0    39   0.0  1   1    4    0   0.000    0.000    0.000  1

# === END OF DATA DESCRIPTION FILE ===============================================
