# === DATA DESCRIPTION FILE ======================================================
#
# CAUTION - Investigational device.
# Limited by Federal Law to investigational use.
#
# Dataset name: E:\\Export\\Phantom_EPI_3mm_sag_15FH_SENSE_12_1
#
# CLINICAL TRYOUT             Research image export tool     V4.2
#
# === GENERAL INFORMATION ========================================================
#
.    Patient name                       :   Phantom
.    Examination name                   :   Orientation Par Rec
.    Protocol name                      :   EPI_3mm_sag_15FH SENSE
.    Examination date/time              :   2014.08.05 / 11:08:56
.    Series Type                        :   Image   MRSERIES
.    Acquisition nr                     :   12
.    Reconstruction nr                  :   1
.    Scan Duration [sec]                :   7.97
.    Max. number of cardiac phases      :   1
.    Max. number of echoes              :   1
.    Max. number of slices/locations    :   40
.    Max. number of dynamics            :   1
.    Max. number of mixes               :   1
.    Patient position                   :   Head First Supine
.    Preparation direction              :   Anterior-Posterior
.    Technique                          :   FEEPI
.    Scan resolution  (x, y)            :   80  78
.    Scan mode                          :   MS
.    Repetition time [ms]               :   2000.000  
.    FOV (ap,fh,rl) [mm]                :   240.000  240.000  131.700
.    Water Fat shift [pixels]           :   8.121
.    Angulation midslice(ap,fh,rl)[degr]:   0.000  15.000  0.000
.    Off Centre midslice(ap,fh,rl) [mm] :   0.000  0.000  0.000
.    Flow compensation <0=no 1=yes> ?   :   0
.    Presaturation     <0=no 1=yes> ?   :   0
.    Phase encoding velocity [cm/sec]   :   0.000000  0.000000  0.000000
.    MTC               <0=no 1=yes> ?   :   0
.    SPIR              <0=no 1=yes> ?   :   0
.    EPI factor        <0,1=no EPI>     :   39
.    Dynamic scan      <0=no 1=yes> ?   :   1
.    Diffusion         <0=no 1=yes> ?   :   0
.    Diffusion echo time [ms]           :   0.0000
.    Max. number of diffusion values    :   1
.    Max. number of gradient orients    :   1
.    Number of label types   <0=no ASL> :   0
#
# === PIXEL VALUES =============================================================
#  PV = pixel value in REC file, FP = floating point value, DV = displayed value on console
#  RS = rescale slope,           RI = rescale intercept,    SS = scale slope
#  DV = PV * RS + RI             FP = DV / (RS * SS)
#
# === IMAGE INFORMATION DEFINITION =============================================
#  The rest of this file contains ONE line per image, this line contains the following information:
#
#  slice number                             (integer)
#  echo number                              (integer)
#  dynamic scan number                      (integer)
#  cardiac phase number                     (integer)
#  image_type_mr                            (integer)
#  scanning sequence                        (integer)
#  index in REC file (in images)            (integer)
#  image pixel size (in bits)               (integer)
#  scan percentage                          (integer)
#  recon resolution (x y)                   (2*integer)
#  rescale intercept                        (float)
#  rescale slope                            (float)
#  scale slope                              (float)
#  window center                            (integer)
#  window width                             (integer)
#  image angulation (ap,fh,rl in degrees )  (3*float)
#  image offcentre (ap,fh,rl in mm )        (3*float)
#  slice thickness (in mm )                 (float)
#  slice gap (in mm )                       (float)
#  image_display_orientation                (integer)
#  slice orientation ( TRA/SAG/COR )        (integer)
#  fmri_status_indication                   (integer)
#  image_type_ed_es  (end diast/end syst)   (integer)
#  pixel spacing (x,y) (in mm)              (2*float)
#  echo_time                                (float)
#  dyn_scan_begin_time                      (float)
#  trigger_time                             (float)
#  diffusion_b_factor                       (float)
#  number of averages                       (integer)
#  image_flip_angle (in degrees)            (float)
#  cardiac frequency   (bpm)                (integer)
#  minimum RR-interval (in ms)              (integer)
#  maximum RR-interval (in ms)              (integer)
#  TURBO factor  <0=no turbo>               (integer)
#  Inversion delay (in ms)                  (float)
#  diffusion b value number    (imagekey!)  (integer)
#  gradient orientation number (imagekey!)  (integer)
#  contrast type                            (string)
#  diffusion anisotropy type                (string)
#  diffusion (ap, fh, rl)                   (3*float)
#  label type (ASL)            (imagekey!)  (integer)
#
# === IMAGE INFORMATION ==========================================================
#  sl ec  dyn ph ty    idx pix scan% rec size                (re)scale              window        angulation              offcentre        thick   gap   info      spacing     echo     dtime   ttime    diff  avg  flip    freq   RR-int  turbo delay b grad cont anis         diffusion       L.ty

  1   1    1  1 0 2     0  16   100   80   80     0.00000  28.40195 1.68760e-002  1070  1860  -0.00  15.00  -0.00   16.66    0.00   62.16  3.000  0.300 0 2 0 2  3.000  3.000  10.68    0.00     0.00    0.00   1   90.00     0    0    0    39   0.0  1   1    4    0   0.000    0.000    0.000  1
  2   1    1  1 0 2     1  16   100   80   80     0.00000  28.40195 1.68760e-002  1721  2992  -0.00  15.00  -0.00   15.80    0.00   58.97  3.000  0.300 0 2 0 2  3.000  3.000  10.68    0.00     0.00    0.00   1   90.00     0    0    0    39   0.0  1   1    4    0   0.000    0.000    0.000  1
  3   1    1  1 0 2     2  16   100   80   80     0.00000  28.40195 1.68760e-002  1646  2861  -0.00  15.00  -0.00   14.95    0.00   55.78  3.000  0.300 0 2 0 2  3.000  3.000  10.68    0.00     0.00    0.00   1   90.00     0    0    0    39   0.0  1   1    4    0   0.000    0.000    0.000  1
  4   1    1  1 0 2     3  16   100   80   80     0.00000  28.40195 1.68760e-002  3328  5785  -0.00  15.00  -0.00   14.09    0.00   52.59  3.000  0.300 0 2 0 2  3.000  3.000  10.68    0.00     0.00    0.00   1   90.00     0    0    0    39   0.0  1   1    4    0   0.000    0.000    0.000  1
  5   1    1  1 0 2     4  16   100   80   80     0.00000  28.40195 1.68760e-002 20485 35609  -0.00  15.00  -0.00   13.24    0.00   49.41  3.000  0.300 0 2 0 2  3.000  3.000  10.68    0.00     0.00    0.00   1   90.00     0    0    0    39   0.0  1   1    4    0   0.000    0.000    0.000  1
  6   1    1  1 0 2     5  16   100   80   80     0.00000  28.40195 1.68760e-002 22401 38940  -0.00  15.00  -0.00   12.38    0.00   46.22  3.000  0.300 0 2 0 2  3.000  3.000  10.68    0.00     0.00    0.00   1   90.00     0    0    0    39   0.0  1   1    4    0   0.000    0.000    0.000  1
  7   1    1  1 0 2     6  16   100   80   80     0.00000  28.40195 1.68760e-002 23426 40721  -0.00  15.00  -0.00   11.53    0.00   43.03  3.000  0.300 0 2 0 2  3.000  3.000  10.68    0.00     0.00    0.00   1   90.00     0    0    0    39   0.0  1   1    4    0   0.000    0.000    0.000  1
  8   1    1  1 0 2     7  16   100   80   80     0.00000  28.40195 1.68760e-002 23915 41572  -0.00  15.00  -0.00   10.68    0.00   39.84  3.000  0.300 0 2 0 2  3.000  3.000  10.68    0.00     0.00    0.00   1   90.00     0    0    0    39   0.0  1   1    4    0   0.000    0.000    0.000  1
  9   1    1  1 0 2     8  16   100   80   80     0.00000  28.40195 1.68760e-002 24509 42604  -0.00  15.00  -0.00    9.82    0.00   36.66  3.000  0.300 0 2 0 2  3.000  3.000  10.68    0.00     0.00    0.00   1   90.00     0    0    0    39   0.0  1   1    4    0   0.000    0.000    0.000  1
 10   1    1  1 0 2     9  16   100   80   80     0.00000  28.40195 1.68760e-002 25379 44117  -0.00  15.00  -0.00    8.97    0.00   33.47  3.000  0.300 0 2 0 2  3.000  3.000  10.68    0.00     0.00    0.00   1   90.00     0    0    0    39   0.0  1   1    4    0   0.000    0.000    0.000  1
 11   1    1  1 0 2    10  16   100   80   80     0.00000  28.40195 1.68760e-002 25423 44193  -0.00  15.00  -0.00    8.11    0.00   30.28  3.000  0.300 0 2 0 2  3.000  3.000  10.68    0.00     0.00    0.00   1   90.00     0    0    0    39   0.0  1   1    4    0   0.000    0.000    0.000  1
 12   1    1  1 0 2    11  16   100   80   80     0.00000  28.40195 1.68760e-002 25437 44218  -0.00  15.00  -0.00    7.26    0.00   27.09  3.000  0.300 0 2 0 2  3.000  3.000  10.68    0.00     0.00    0.00   1   90.00     0    0    0    39   0.0  1   1    4    0   0.000    0.000    0.000  1
 13   1    1  1 0 2    12  16   100   80   80     0.00000  28.40195 1.68760e-002 25657 44600  -0.00  15.00  -0.00    6.41    0.00   23.91  3.000  0.300 0 2 0 2  3.000  3.000  10.68    0.00     0.00    0.00   1   90.00     0    0    0    39   0.0  1   1    4    0   0.000    0.000    0.000  1
 14   1    1  1 0 2    13  16   100   80   80     0.00000  28.40195 1.68760e-002 25584 44473  -0.00  15.00  -0.00    5.55    0.00   20.72  3.000  0.300 0 2 0 2  3.000  3.000  10.68    0.00     0.00    0.00   1   90.00     0    0    0    39   0.0  1   1    4    0   0.000    0.000    0.000  1
 15   1    1  1 0 2    14  16   100   80   80     0.00000  28.40195 1.68760e-002 25960 45127  -0.00  15.00  -0.00    4.70    0.00   17.53  3.000  0.300 0 2 0 2  3.000  3.000  10.68    0.00     0.00    0.00   1   90.00     0    0    0    39   0.0  1   1    4    0   0.000    0.000    0.000  1
 16   1    1  1 0 2    15  16   100   80   80     0.00000  28.40195 1.68760e-002 26082 45340  -0.00  15.00  -0.00    3.84    0.00   14.34  3.000  0.300 0 2 0 2  3.000  3.000  10.68    0.00     0.00    0.00   1   90.00     0    0    0    39   0.0  1   1    4    0   0.000    0.000    0.000  1
 17   1    1  1 0 2    16  16   100   80   80     0.00000  28.40195 1.68760e-002 25961 45128  -0.00  15.00  -0.00    2.99    0.00   11.16  3.000  0.300 0 2 0 2  3.000  3.000  10.68    0.00     0.00    0.00   1   90.00     0    0    0    39   0.0  1   1    4    0   0.000    0.000    0.000  1
 18   1    1  1 0 2    17  16   100   80   80     0.00000  28.40195 1.68760e-002 26290 45701  -0.00  15.00  -0.00    2.14    0.00    7.97  3.000  0.300 0 2 0 2  3.000  3.000  10.68    0.00     0.00    0.00   1   90.00     0    0    0    39   0.0  1   1    4    0   0.000    0.000    0.000  1
 19   1    1  1 0 2    18  16   100   80   80     0.00000  28.40195 1.68760e-002 26300 45718  -0.00  15.00  -0.00    1.28    0.00    4.78  3.000  0.300 0 2 0 2  3.000  3.000  10.68    0.00     0.00    0.00   1   90.00     0    0    0    39   0.0  1   1    4    0   0.000    0.000    0.000  1
 20   1    1  1 0 2    19  16   100   80   80     0.00000  28.40195 1.68760e-002 26601 46241  -0.00  15.00  -0.00    0.43    0.00    1.59  3.000  0.300 0 2 0 2  3.000  3.000  10.68    0.00     0.00    0.00   1   90.00     0    0    0    39   0.0  1   1    4    0   0.000    0.000    0.000  1
 21   1    1  1 0 2    20  16   100   80   80     0.00000  28.40195 1.68760e-002 26447 45973  -0.00  15.00  -0.00   -0.43    0.00   -1.59  3.000  0.300 0 2 0 2  3.000  3.000  10.68    0.00     0.00    0.00   1   90.00     0    0    0    39   0.0  1   1    4    0   0.000    0.000    0.000  1
 22   1    1  1 0 2    21  16   100   80   80     0.00000  28.40195 1.68760e-002 26810 46605  -0.00  15.00  -0.00   -1.28    0.00   -4.78  3.000  0.300 0 2 0 2  3.000  3.000  10.68    0.00     0.00    0.00   1   90.00     0    0    0    39   0.0  1   1    4    0   0.000    0.000    0.000  1
 23   1    1  1 0 2    22  16   100   80   80     0.00000  28.40195 1.68760e-002 26046 45276  -0.00  15.00  -0.00   -2.14    0.00   -7.97  3.000  0.300 0 2 0 2  3.000  3.000  10.68    0.00     0.00    0.00   1   90.00     0    0    0    39   0.0  1   1    4    0   0.000    0.000    0.000  1
 24   1    1  1 0 2    23  16   100   80   80     0.00000  28.40195 1.68760e-002 26687 46390  -0.00  15.00  -0.00   -2.99    0.00  -11.16  3.000  0.300 0 2 0 2  3.000  3.000  10.68    0.00     0.00    0.00   1   90.00     0    0    0    39   0.0  1   1    4    0   0.000    0.000    0.000  1
 25   1    1  1 0 2    24  16   100   80   80     0.00000  28.40195 1.68760e-002 26879 46724  -0.00  15.00  -0.00   -3.84    0.00  -14.34  3.000  0.300 0 2 0 2  3.000  3.000  10.68    0.00     0.00    0.00   1   90.00     0    0    0    39   0.0  1   1    4    0   0.000    0.000    0.000  1
 26   1    1  1 0 2    25  16   100   80   80     0.00000  28.40195 1.68760e-002 26437 45955  -0.00  15.00  -0.00   -4.70    0.00  -17.53  3.000  0.300 0 2 0 2  3.000  3.000  10.68    0.00     0.00    0.00   1   90.00     0    0    0    39   0.0  1   1    4    0   0.000    0.000    0.000  1
 27   1    1  1 0 2    26  16   100   80   80     0.00000  28.40195 1.68760e-002 26711 46433  -0.00  15.00  -0.00   -5.55    0.00  -20.72  3.000  0.300 0 2 0 2  3.000  3.000  10.68    0.00     0.00    0.00   1   90.00     0    0    0    39   0.0  1   1    4    0   0.000    0.000    0.000  1
 28   1    1  1 0 2    27  16   100   80   80     0.00000  28.40195 1.68760e-002 26787 46565  -0.00  15.00  -0.00   -6.41    0.00  -23.91  3.000  0.300 0 2 0 2  3.000  3.000  10.68    0.00     0.00    0.00   1   90.00     0    0    0    39   0.0  1   1    4    0   0.000    0.000    0.000  1
 29   1    1  1 0 2    28  16   100   80   80     0.00000  28.40195 1.68760e-002 25029 43508  -0.00  15.00  -0.00   -7.26    0.00  -27.09  3.000  0.300 0 2 0 2  3.000  3.000  10.68    0.00     0.00    0.00   1   90.00     0    0    0    39   0.0  1   1    4    0   0.000    0.000    0.000  1
 30   1    1  1 0 2    29  16   100   80   80     0.00000  28.40195 1.68760e-002 24056 41816  -0.00  15.00  -0.00   -8.11    0.00  -30.28  3.000  0.300 0 2 0 2  3.000  3.000  10.68    0.00     0.00    0.00   1   90.00     0    0    0    39   0.0  1   1    4    0   0.000    0.000    0.000  1
 31   1    1  1 0 2    30  16   100   80   80     0.00000  28.40195 1.68760e-002 23063 40090  -0.00  15.00  -0.00   -8.97    0.00  -33.47  3.000  0.300 0 2 0 2  3.000  3.000  10.68    0.00     0.00    0.00   1   90.00     0    0    0    39   0.0  1   1    4    0   0.000    0.000    0.000  1
 32   1    1  1 0 2    31  16   100   80   80     0.00000  28.40195 1.68760e-002 22503 39118  -0.00  15.00  -0.00   -9.82    0.00  -36.66  3.000  0.300 0 2 0 2  3.000  3.000  10.68    0.00     0.00    0.00   1   90.00     0    0    0    39   0.0  1   1    4    0   0.000    0.000    0.000  1
 33   1    1  1 0 2    32  16   100   80   80     0.00000  28.40195 1.68760e-002 22341 38836  -0.00  15.00  -0.00  -10.68    0.00  -39.84  3.000  0.300 0 2 0 2  3.000  3.000  10.68    0.00     0.00    0.00   1   90.00     0    0    0    39   0.0  1   1    4    0   0.000    0.000    0.000  1
 34   1    1  1 0 2    33  16   100   80   80     0.00000  28.40195 1.68760e-002 22076 38375  -0.00  15.00  -0.00  -11.53    0.00  -43.03  3.000  0.300 0 2 0 2  3.000  3.000  10.68    0.00     0.00    0.00   1   90.00     0    0    0    39   0.0  1   1    4    0   0.000    0.000    0.000  1
 35   1    1  1 0 2    34  16   100   80   80     0.00000  28.40195 1.68760e-002  2188  3803  -0.00  15.00  -0.00  -12.38    0.00  -46.22  3.000  0.300 0 2 0 2  3.000  3.000  10.68    0.00     0.00    0.00   1   90.00     0    0    0    39   0.0  1   1    4    0   0.000    0.000    0.000  1
 36   1    1  1 0 2    35  16   100   80   80     0.00000  28.40195 1.68760e-002   108   188  -0.00  15.00  -0.00  -13.24    0.00  -49.41  3.000  0.300 0 2 0 2  3.000  3.000  10.68    0.00     0.00    0.00   1   90.00     0    0    0    39   0.0  1   1    4    0   0.000    0.000    0.000  1
 37   1    1  1 0 2    36  16   100   80   80     0.00000  28.40195 1.68760e-002    80   140  -0.00  15.00  -0.00  -14.09    0.00  -52.59  3.000  0.300 0 2 0 2  3.000  3.000  10.68    0.00     0.00    0.00   1   90.00     0    0    0    39   0.0  1   1    4    0   0.000    0.000    0.000  1
 38   1    1  1 0 2    37  16   100   80   80     0.00000  28.40195 1.68760e-002    59   103  -0.00  15.00  -0.00  -14.95    0.00  -55.78  3.000  0.300 0 2 0 2  3.000  3.000  10.68    0.00     0.00    0.00   1   90.00     0    0    0    39   0.0  1   1    4    0   0.000    0.000    0.000  1
 39   1    1  1 0 2    38  16   100   80   80     0.00000  28.40195 1.68760e-002    60   105  -0.00  15.00  -0.00  -15.80    0.00  -58.97  3.000  0.300 0 2 0 2  3.000  3.000  10.68    0.00     0.00    0.00   1   90.00     0    0    0    39   0.0  1   1    4    0   0.000    0.000    0.000  1
 40   1    1  1 0 2    39  16   100   80   80     0.00000  28.40195 1.68760e-002    60   103  -0.00  15.00  -0.00  -16.66    0.00  -62.16  3.000  0.300 0 2 0 2  3.000  3.000  10.68    0.00     0.00    0.00   1   90.00     0    0    0    39   0.0  1   1    4    0   0.000    0.000    0.000  1

# === END OF DATA DESCRIPTION FILE ===============================================
