# === DATA DESCRIPTION FILE ======================================================
#
# CAUTION - Investigational device.
# Limited by Federal Law to investigational use.
#
# Dataset name: E:\\Export\\Phantom_EPI_3mm_tra_15RL_SENSE_10_1
#
# CLINICAL TRYOUT             Research image export tool     V4.2
#
# === GENERAL INFORMATION ========================================================
#
.    Patient name                       :   Phantom
.    Examination name                   :   Orientation Par Rec
.    Protocol name                      :   EPI_3mm_tra_15RL SENSE
.    Examination date/time              :   2014.08.05 / 11:08:56
.    Series Type                        :   Image   MRSERIES
.    Acquisition nr                     :   10
.    Reconstruction nr                  :   1
.    Scan Duration [sec]                :   7.97
.    Max. number of cardiac phases      :   1
.    Max. number of echoes              :   1
.    Max. number of slices/locations    :   40
.    Max. number of dynamics            :   1
.    Max. number of mixes               :   1
.    Patient position                   :   Head First Supine
.    Preparation direction              :   Anterior-Posterior
.    Technique                          :   FEEPI
.    Scan resolution  (x, y)            :   80  78
.    Scan mode                          :   MS
.    Repetition time [ms]               :   2000.000  
.    FOV (ap,fh,rl) [mm]                :   240.000  240.000  131.700
.    Water Fat shift [pixels]           :   7.231
.    Angulation midslice(ap,fh,rl)[degr]:   0.000  0.000  15.000
.    Off Centre midslice(ap,fh,rl) [mm] :   0.000  0.000  0.000
.    Flow compensation <0=no 1=yes> ?   :   0
.    Presaturation     <0=no 1=yes> ?   :   0
.    Phase encoding velocity [cm/sec]   :   0.000000  0.000000  0.000000
.    MTC               <0=no 1=yes> ?   :   0
.    SPIR              <0=no 1=yes> ?   :   0
.    EPI factor        <0,1=no EPI>     :   39
.    Dynamic scan      <0=no 1=yes> ?   :   1
.    Diffusion         <0=no 1=yes> ?   :   0
.    Diffusion echo time [ms]           :   0.0000
.    Max. number of diffusion values    :   1
.    Max. number of gradient orients    :   1
.    Number of label types   <0=no ASL> :   0
#
# === PIXEL VALUES =============================================================
#  PV = pixel value in REC file, FP = floating point value, DV = displayed value on console
#  RS = rescale slope,           RI = rescale intercept,    SS = scale slope
#  DV = PV * RS + RI             FP = DV / (RS * SS)
#
# === IMAGE INFORMATION DEFINITION =============================================
#  The rest of this file contains ONE line per image, this line contains the following information:
#
#  slice number                             (integer)
#  echo number                              (integer)
#  dynamic scan number                      (integer)
#  cardiac phase number                     (integer)
#  image_type_mr                            (integer)
#  scanning sequence                        (integer)
#  index in REC file (in images)            (integer)
#  image pixel size (in bits)               (integer)
#  scan percentage                          (integer)
#  recon resolution (x y)                   (2*integer)
#  rescale intercept                        (float)
#  rescale slope                            (float)
#  scale slope                              (float)
#  window center                            (integer)
#  window width                             (integer)
#  image angulation (ap,fh,rl in degrees )  (3*float)
#  image offcentre (ap,fh,rl in mm )        (3*float)
#  slice thickness (in mm )                 (float)
#  slice gap (in mm )                       (float)
#  image_display_orientation                (integer)
#  slice orientation ( TRA/SAG/COR )        (integer)
#  fmri_status_indication                   (integer)
#  image_type_ed_es  (end diast/end syst)   (integer)
#  pixel spacing (x,y) (in mm)              (2*float)
#  echo_time                                (float)
#  dyn_scan_begin_time                      (float)
#  trigger_time                             (float)
#  diffusion_b_factor                       (float)
#  number of averages                       (integer)
#  image_flip_angle (in degrees)            (float)
#  cardiac frequency   (bpm)                (integer)
#  minimum RR-interval (in ms)              (integer)
#  maximum RR-interval (in ms)              (integer)
#  TURBO factor  <0=no turbo>               (integer)
#  Inversion delay (in ms)                  (float)
#  diffusion b value number    (imagekey!)  (integer)
#  gradient orientation number (imagekey!)  (integer)
#  contrast type                            (string)
#  diffusion anisotropy type                (string)
#  diffusion (ap, fh, rl)                   (3*float)
#  label type (ASL)            (imagekey!)  (integer)
#
# === IMAGE INFORMATION ==========================================================
#  sl ec  dyn ph ty    idx pix scan% rec size                (re)scale              window        angulation              offcentre        thick   gap   info      spacing     echo     dtime   ttime    diff  avg  flip    freq   RR-int  turbo delay b grad cont anis         diffusion       L.ty

  1   1    1  1 0 2     0  16   100   80   80     0.00000 259.72406 1.53218e-002  1070  1860   0.00  -0.00  15.00    0.00    0.00   64.35  3.000  0.300 0 2 0 2  3.000  3.000   9.63    0.00     0.00    0.00   1   90.00     0    0    0    39   0.0  1   1    4    0   0.000    0.000    0.000  1
  2   1    1  1 0 2     1  16   100   80   80     0.00000 259.72406 1.53218e-002 15508 26958   0.00  -0.00  15.00    0.00    0.00   61.05  3.000  0.300 0 2 0 2  3.000  3.000   9.63    0.00     0.00    0.00   1   90.00     0    0    0    39   0.0  1   1    4    0   0.000    0.000    0.000  1
  3   1    1  1 0 2     2  16   100   80   80     0.00000 259.72406 1.53218e-002 27745 48229   0.00  -0.00  15.00    0.00    0.00   57.75  3.000  0.300 0 2 0 2  3.000  3.000   9.63    0.00     0.00    0.00   1   90.00     0    0    0    39   0.0  1   1    4    0   0.000    0.000    0.000  1
  4   1    1  1 0 2     3  16   100   80   80     0.00000 259.72406 1.53218e-002 19842 34491   0.00  -0.00  15.00    0.00    0.00   54.45  3.000  0.300 0 2 0 2  3.000  3.000   9.63    0.00     0.00    0.00   1   90.00     0    0    0    39   0.0  1   1    4    0   0.000    0.000    0.000  1
  5   1    1  1 0 2     4  16   100   80   80     0.00000 259.72406 1.53218e-002  2434  4232   0.00  -0.00  15.00    0.00    0.00   51.15  3.000  0.300 0 2 0 2  3.000  3.000   9.63    0.00     0.00    0.00   1   90.00     0    0    0    39   0.0  1   1    4    0   0.000    0.000    0.000  1
  6   1    1  1 0 2     5  16   100   80   80     0.00000 259.72406 1.53218e-002  1456  2530   0.00  -0.00  15.00    0.00    0.00   47.85  3.000  0.300 0 2 0 2  3.000  3.000   9.63    0.00     0.00    0.00   1   90.00     0    0    0    39   0.0  1   1    4    0   0.000    0.000    0.000  1
  7   1    1  1 0 2     6  16   100   80   80     0.00000 259.72406 1.53218e-002 145411 252771   0.00  -0.00  15.00    0.00    0.00   44.55  3.000  0.300 0 2 0 2  3.000  3.000   9.63    0.00     0.00    0.00   1   90.00     0    0    0    39   0.0  1   1    4    0   0.000    0.000    0.000  1
  8   1    1  1 0 2     7  16   100   80   80     0.00000 259.72406 1.53218e-002 177050 307769   0.00  -0.00  15.00    0.00    0.00   41.25  3.000  0.300 0 2 0 2  3.000  3.000   9.63    0.00     0.00    0.00   1   90.00     0    0    0    39   0.0  1   1    4    0   0.000    0.000    0.000  1
  9   1    1  1 0 2     8  16   100   80   80     0.00000 259.72406 1.53218e-002 188750 328108   0.00  -0.00  15.00    0.00    0.00   37.95  3.000  0.300 0 2 0 2  3.000  3.000   9.63    0.00     0.00    0.00   1   90.00     0    0    0    39   0.0  1   1    4    0   0.000    0.000    0.000  1
 10   1    1  1 0 2     9  16   100   80   80     0.00000 259.72406 1.53218e-002 193758 336812   0.00  -0.00  15.00    0.00    0.00   34.65  3.000  0.300 0 2 0 2  3.000  3.000   9.63    0.00     0.00    0.00   1   90.00     0    0    0    39   0.0  1   1    4    0   0.000    0.000    0.000  1
 11   1    1  1 0 2    10  16   100   80   80     0.00000 259.72406 1.53218e-002 199698 347139   0.00  -0.00  15.00    0.00    0.00   31.35  3.000  0.300 0 2 0 2  3.000  3.000   9.63    0.00     0.00    0.00   1   90.00     0    0    0    39   0.0  1   1    4    0   0.000    0.000    0.000  1
 12   1    1  1 0 2    11  16   100   80   80     0.00000 259.72406 1.53218e-002 200294 348175   0.00  -0.00  15.00    0.00    0.00   28.05  3.000  0.300 0 2 0 2  3.000  3.000   9.63    0.00     0.00    0.00   1   90.00     0    0    0    39   0.0  1   1    4    0   0.000    0.000    0.000  1
 13   1    1  1 0 2    12  16   100   80   80     0.00000 259.72406 1.53218e-002 205793 357733   0.00  -0.00  15.00    0.00    0.00   24.75  3.000  0.300 0 2 0 2  3.000  3.000   9.63    0.00     0.00    0.00   1   90.00     0    0    0    39   0.0  1   1    4    0   0.000    0.000    0.000  1
 14   1    1  1 0 2    13  16   100   80   80     0.00000 259.72406 1.53218e-002 206112 358288   0.00  -0.00  15.00    0.00    0.00   21.45  3.000  0.300 0 2 0 2  3.000  3.000   9.63    0.00     0.00    0.00   1   90.00     0    0    0    39   0.0  1   1    4    0   0.000    0.000    0.000  1
 15   1    1  1 0 2    14  16   100   80   80     0.00000 259.72406 1.53218e-002 213705 371487   0.00  -0.00  15.00    0.00    0.00   18.15  3.000  0.300 0 2 0 2  3.000  3.000   9.63    0.00     0.00    0.00   1   90.00     0    0    0    39   0.0  1   1    4    0   0.000    0.000    0.000  1
 16   1    1  1 0 2    15  16   100   80   80     0.00000 259.72406 1.53218e-002 214078 372136   0.00  -0.00  15.00    0.00    0.00   14.85  3.000  0.300 0 2 0 2  3.000  3.000   9.63    0.00     0.00    0.00   1   90.00     0    0    0    39   0.0  1   1    4    0   0.000    0.000    0.000  1
 17   1    1  1 0 2    16  16   100   80   80     0.00000 259.72406 1.53218e-002 218418 379680   0.00  -0.00  15.00    0.00    0.00   11.55  3.000  0.300 0 2 0 2  3.000  3.000   9.63    0.00     0.00    0.00   1   90.00     0    0    0    39   0.0  1   1    4    0   0.000    0.000    0.000  1
 18   1    1  1 0 2    17  16   100   80   80     0.00000 259.72406 1.53218e-002 217818 378638   0.00  -0.00  15.00    0.00    0.00    8.25  3.000  0.300 0 2 0 2  3.000  3.000   9.63    0.00     0.00    0.00   1   90.00     0    0    0    39   0.0  1   1    4    0   0.000    0.000    0.000  1
 19   1    1  1 0 2    18  16   100   80   80     0.00000 259.72406 1.53218e-002 217442 377984   0.00  -0.00  15.00    0.00    0.00    4.95  3.000  0.300 0 2 0 2  3.000  3.000   9.63    0.00     0.00    0.00   1   90.00     0    0    0    39   0.0  1   1    4    0   0.000    0.000    0.000  1
 20   1    1  1 0 2    19  16   100   80   80     0.00000 259.72406 1.53218e-002 221488 385017   0.00  -0.00  15.00    0.00    0.00    1.65  3.000  0.300 0 2 0 2  3.000  3.000   9.63    0.00     0.00    0.00   1   90.00     0    0    0    39   0.0  1   1    4    0   0.000    0.000    0.000  1
 21   1    1  1 0 2    20  16   100   80   80     0.00000 259.72406 1.53218e-002 221780 385524   0.00  -0.00  15.00    0.00    0.00   -1.65  3.000  0.300 0 2 0 2  3.000  3.000   9.63    0.00     0.00    0.00   1   90.00     0    0    0    39   0.0  1   1    4    0   0.000    0.000    0.000  1
 22   1    1  1 0 2    21  16   100   80   80     0.00000 259.72406 1.53218e-002 223435 388401   0.00  -0.00  15.00    0.00    0.00   -4.95  3.000  0.300 0 2 0 2  3.000  3.000   9.63    0.00     0.00    0.00   1   90.00     0    0    0    39   0.0  1   1    4    0   0.000    0.000    0.000  1
 23   1    1  1 0 2    22  16   100   80   80     0.00000 259.72406 1.53218e-002 223302 388170   0.00  -0.00  15.00    0.00    0.00   -8.25  3.000  0.300 0 2 0 2  3.000  3.000   9.63    0.00     0.00    0.00   1   90.00     0    0    0    39   0.0  1   1    4    0   0.000    0.000    0.000  1
 24   1    1  1 0 2    23  16   100   80   80     0.00000 259.72406 1.53218e-002 222120 386116   0.00  -0.00  15.00    0.00    0.00  -11.55  3.000  0.300 0 2 0 2  3.000  3.000   9.63    0.00     0.00    0.00   1   90.00     0    0    0    39   0.0  1   1    4    0   0.000    0.000    0.000  1
 25   1    1  1 0 2    24  16   100   80   80     0.00000 259.72406 1.53218e-002 220403 383130   0.00  -0.00  15.00    0.00    0.00  -14.85  3.000  0.300 0 2 0 2  3.000  3.000   9.63    0.00     0.00    0.00   1   90.00     0    0    0    39   0.0  1   1    4    0   0.000    0.000    0.000  1
 26   1    1  1 0 2    25  16   100   80   80     0.00000 259.72406 1.53218e-002 222475 386732   0.00  -0.00  15.00    0.00    0.00  -18.15  3.000  0.300 0 2 0 2  3.000  3.000   9.63    0.00     0.00    0.00   1   90.00     0    0    0    39   0.0  1   1    4    0   0.000    0.000    0.000  1
 27   1    1  1 0 2    26  16   100   80   80     0.00000 259.72406 1.53218e-002 221493 385026   0.00  -0.00  15.00    0.00    0.00  -21.45  3.000  0.300 0 2 0 2  3.000  3.000   9.63    0.00     0.00    0.00   1   90.00     0    0    0    39   0.0  1   1    4    0   0.000    0.000    0.000  1
 28   1    1  1 0 2    27  16   100   80   80     0.00000 259.72406 1.53218e-002 217191 377546   0.00  -0.00  15.00    0.00    0.00  -24.75  3.000  0.300 0 2 0 2  3.000  3.000   9.63    0.00     0.00    0.00   1   90.00     0    0    0    39   0.0  1   1    4    0   0.000    0.000    0.000  1
 29   1    1  1 0 2    28  16   100   80   80     0.00000 259.72406 1.53218e-002 214388 372674   0.00  -0.00  15.00    0.00    0.00  -28.05  3.000  0.300 0 2 0 2  3.000  3.000   9.63    0.00     0.00    0.00   1   90.00     0    0    0    39   0.0  1   1    4    0   0.000    0.000    0.000  1
 30   1    1  1 0 2    29  16   100   80   80     0.00000 259.72406 1.53218e-002 212685 369715   0.00  -0.00  15.00    0.00    0.00  -31.35  3.000  0.300 0 2 0 2  3.000  3.000   9.63    0.00     0.00    0.00   1   90.00     0    0    0    39   0.0  1   1    4    0   0.000    0.000    0.000  1
 31   1    1  1 0 2    30  16   100   80   80     0.00000 259.72406 1.53218e-002 207643 360949   0.00  -0.00  15.00    0.00    0.00  -34.65  3.000  0.300 0 2 0 2  3.000  3.000   9.63    0.00     0.00    0.00   1   90.00     0    0    0    39   0.0  1   1    4    0   0.000    0.000    0.000  1
 32   1    1  1 0 2    31  16   100   80   80     0.00000 259.72406 1.53218e-002 204580 355625   0.00  -0.00  15.00    0.00    0.00  -37.95  3.000  0.300 0 2 0 2  3.000  3.000   9.63    0.00     0.00    0.00   1   90.00     0    0    0    39   0.0  1   1    4    0   0.000    0.000    0.000  1
 33   1    1  1 0 2    32  16   100   80   80     0.00000 259.72406 1.53218e-002 198733 345461   0.00  -0.00  15.00    0.00    0.00  -41.25  3.000  0.300 0 2 0 2  3.000  3.000   9.63    0.00     0.00    0.00   1   90.00     0    0    0    39   0.0  1   1    4    0   0.000    0.000    0.000  1
 34   1    1  1 0 2    33  16   100   80   80     0.00000 259.72406 1.53218e-002 194698 338446   0.00  -0.00  15.00    0.00    0.00  -44.55  3.000  0.300 0 2 0 2  3.000  3.000   9.63    0.00     0.00    0.00   1   90.00     0    0    0    39   0.0  1   1    4    0   0.000    0.000    0.000  1
 35   1    1  1 0 2    34  16   100   80   80     0.00000 259.72406 1.53218e-002 190002 330284   0.00  -0.00  15.00    0.00    0.00  -47.85  3.000  0.300 0 2 0 2  3.000  3.000   9.63    0.00     0.00    0.00   1   90.00     0    0    0    39   0.0  1   1    4    0   0.000    0.000    0.000  1
 36   1    1  1 0 2    35  16   100   80   80     0.00000 259.72406 1.53218e-002 190822 331709   0.00  -0.00  15.00    0.00    0.00  -51.15  3.000  0.300 0 2 0 2  3.000  3.000   9.63    0.00     0.00    0.00   1   90.00     0    0    0    39   0.0  1   1    4    0   0.000    0.000    0.000  1
 37   1    1  1 0 2    36  16   100   80   80     0.00000 259.72406 1.53218e-002 75888 131918   0.00  -0.00  15.00    0.00    0.00  -54.45  3.000  0.300 0 2 0 2  3.000  3.000   9.63    0.00     0.00    0.00   1   90.00     0    0    0    39   0.0  1   1    4    0   0.000    0.000    0.000  1
 38   1    1  1 0 2    37  16   100   80   80     0.00000 259.72406 1.53218e-002  1478  2569   0.00  -0.00  15.00    0.00    0.00  -57.75  3.000  0.300 0 2 0 2  3.000  3.000   9.63    0.00     0.00    0.00   1   90.00     0    0    0    39   0.0  1   1    4    0   0.000    0.000    0.000  1
 39   1    1  1 0 2    38  16   100   80   80     0.00000 259.72406 1.53218e-002   971  1689   0.00  -0.00  15.00    0.00    0.00  -61.05  3.000  0.300 0 2 0 2  3.000  3.000   9.63    0.00     0.00    0.00   1   90.00     0    0    0    39   0.0  1   1    4    0   0.000    0.000    0.000  1
 40   1    1  1 0 2    39  16   100   80   80     0.00000 259.72406 1.53218e-002   634  1102   0.00  -0.00  15.00    0.00    0.00  -64.35  3.000  0.300 0 2 0 2  3.000  3.000   9.63    0.00     0.00    0.00   1   90.00     0    0    0    39   0.0  1   1    4    0   0.000    0.000    0.000  1

# === END OF DATA DESCRIPTION FILE ===============================================
