# === DATA DESCRIPTION FILE ======================================================
#
# CAUTION - Investigational device.
# Limited by Federal Law to investigational use.
#
# Dataset name: E:\\Export\\Phantom_EPI_3mm_tra_15FH_SENSE_9_1
#
# CLINICAL TRYOUT             Research image export tool     V4.2
#
# === GENERAL INFORMATION ========================================================
#
.    Patient name                       :   Phantom
.    Examination name                   :   Orientation Par Rec
.    Protocol name                      :   EPI_3mm_tra_15FH SENSE
.    Examination date/time              :   2014.08.05 / 11:08:56
.    Series Type                        :   Image   MRSERIES
.    Acquisition nr                     :   9
.    Reconstruction nr                  :   1
.    Scan Duration [sec]                :   7.97
.    Max. number of cardiac phases      :   1
.    Max. number of echoes              :   1
.    Max. number of slices/locations    :   40
.    Max. number of dynamics            :   1
.    Max. number of mixes               :   1
.    Patient position                   :   Head First Supine
.    Preparation direction              :   Anterior-Posterior
.    Technique                          :   FEEPI
.    Scan resolution  (x, y)            :   80  78
.    Scan mode                          :   MS
.    Repetition time [ms]               :   2000.000  
.    FOV (ap,fh,rl) [mm]                :   240.000  240.000  131.700
.    Water Fat shift [pixels]           :   8.121
.    Angulation midslice(ap,fh,rl)[degr]:   0.000  15.000  0.000
.    Off Centre midslice(ap,fh,rl) [mm] :   0.000  0.000  0.000
.    Flow compensation <0=no 1=yes> ?   :   0
.    Presaturation     <0=no 1=yes> ?   :   0
.    Phase encoding velocity [cm/sec]   :   0.000000  0.000000  0.000000
.    MTC               <0=no 1=yes> ?   :   0
.    SPIR              <0=no 1=yes> ?   :   0
.    EPI factor        <0,1=no EPI>     :   39
.    Dynamic scan      <0=no 1=yes> ?   :   1
.    Diffusion         <0=no 1=yes> ?   :   0
.    Diffusion echo time [ms]           :   0.0000
.    Max. number of diffusion values    :   1
.    Max. number of gradient orients    :   1
.    Number of label types   <0=no ASL> :   0
#
# === PIXEL VALUES =============================================================
#  PV = pixel value in REC file, FP = floating point value, DV = displayed value on console
#  RS = rescale slope,           RI = rescale intercept,    SS = scale slope
#  DV = PV * RS + RI             FP = DV / (RS * SS)
#
# === IMAGE INFORMATION DEFINITION =============================================
#  The rest of this file contains ONE line per image, this line contains the following information:
#
#  slice number                             (integer)
#  echo number                              (integer)
#  dynamic scan number                      (integer)
#  cardiac phase number                     (integer)
#  image_type_mr                            (integer)
#  scanning sequence                        (integer)
#  index in REC file (in images)            (integer)
#  image pixel size (in bits)               (integer)
#  scan percentage                          (integer)
#  recon resolution (x y)                   (2*integer)
#  rescale intercept                        (float)
#  rescale slope                            (float)
#  scale slope                              (float)
#  window center                            (integer)
#  window width                             (integer)
#  image angulation (ap,fh,rl in degrees )  (3*float)
#  image offcentre (ap,fh,rl in mm )        (3*float)
#  slice thickness (in mm )                 (float)
#  slice gap (in mm )                       (float)
#  image_display_orientation                (integer)
#  slice orientation ( TRA/SAG/COR )        (integer)
#  fmri_status_indication                   (integer)
#  image_type_ed_es  (end diast/end syst)   (integer)
#  pixel spacing (x,y) (in mm)              (2*float)
#  echo_time                                (float)
#  dyn_scan_begin_time                      (float)
#  trigger_time                             (float)
#  diffusion_b_factor                       (float)
#  number of averages                       (integer)
#  image_flip_angle (in degrees)            (float)
#  cardiac frequency   (bpm)                (integer)
#  minimum RR-interval (in ms)              (integer)
#  maximum RR-interval (in ms)              (integer)
#  TURBO factor  <0=no turbo>               (integer)
#  Inversion delay (in ms)                  (float)
#  diffusion b value number    (imagekey!)  (integer)
#  gradient orientation number (imagekey!)  (integer)
#  contrast type                            (string)
#  diffusion anisotropy type                (string)
#  diffusion (ap, fh, rl)                   (3*float)
#  label type (ASL)            (imagekey!)  (integer)
#
# === IMAGE INFORMATION ==========================================================
#  sl ec  dyn ph ty    idx pix scan% rec size                (re)scale              window        angulation              offcentre        thick   gap   info      spacing     echo     dtime   ttime    diff  avg  flip    freq   RR-int  turbo delay b grad cont anis         diffusion       L.ty

  1   1    1  1 0 2     0  16   100   80   80     0.00000  29.22393 1.68760e-002  1070  1860  -0.00  15.00  -0.00   16.66    0.00   62.16  3.000  0.300 0 2 0 2  3.000  3.000  10.68    0.00     0.00    0.00   1   90.00     0    0    0    39   0.0  1   1    4    0   0.000    0.000    0.000  1
  2   1    1  1 0 2     1  16   100   80   80     0.00000  29.22393 1.68760e-002  1869  3249  -0.00  15.00  -0.00   15.80    0.00   58.97  3.000  0.300 0 2 0 2  3.000  3.000  10.68    0.00     0.00    0.00   1   90.00     0    0    0    39   0.0  1   1    4    0   0.000    0.000    0.000  1
  3   1    1  1 0 2     2  16   100   80   80     0.00000  29.22393 1.68760e-002  1631  2835  -0.00  15.00  -0.00   14.95    0.00   55.78  3.000  0.300 0 2 0 2  3.000  3.000  10.68    0.00     0.00    0.00   1   90.00     0    0    0    39   0.0  1   1    4    0   0.000    0.000    0.000  1
  4   1    1  1 0 2     3  16   100   80   80     0.00000  29.22393 1.68760e-002  3391  5894  -0.00  15.00  -0.00   14.09    0.00   52.59  3.000  0.300 0 2 0 2  3.000  3.000  10.68    0.00     0.00    0.00   1   90.00     0    0    0    39   0.0  1   1    4    0   0.000    0.000    0.000  1
  5   1    1  1 0 2     4  16   100   80   80     0.00000  29.22393 1.68760e-002 21060 36608  -0.00  15.00  -0.00   13.24    0.00   49.41  3.000  0.300 0 2 0 2  3.000  3.000  10.68    0.00     0.00    0.00   1   90.00     0    0    0    39   0.0  1   1    4    0   0.000    0.000    0.000  1
  6   1    1  1 0 2     5  16   100   80   80     0.00000  29.22393 1.68760e-002 23131 40208  -0.00  15.00  -0.00   12.38    0.00   46.22  3.000  0.300 0 2 0 2  3.000  3.000  10.68    0.00     0.00    0.00   1   90.00     0    0    0    39   0.0  1   1    4    0   0.000    0.000    0.000  1
  7   1    1  1 0 2     6  16   100   80   80     0.00000  29.22393 1.68760e-002 24022 41758  -0.00  15.00  -0.00   11.53    0.00   43.03  3.000  0.300 0 2 0 2  3.000  3.000  10.68    0.00     0.00    0.00   1   90.00     0    0    0    39   0.0  1   1    4    0   0.000    0.000    0.000  1
  8   1    1  1 0 2     7  16   100   80   80     0.00000  29.22393 1.68760e-002 24552 42679  -0.00  15.00  -0.00   10.68    0.00   39.84  3.000  0.300 0 2 0 2  3.000  3.000  10.68    0.00     0.00    0.00   1   90.00     0    0    0    39   0.0  1   1    4    0   0.000    0.000    0.000  1
  9   1    1  1 0 2     8  16   100   80   80     0.00000  29.22393 1.68760e-002 25124 43674  -0.00  15.00  -0.00    9.82    0.00   36.66  3.000  0.300 0 2 0 2  3.000  3.000  10.68    0.00     0.00    0.00   1   90.00     0    0    0    39   0.0  1   1    4    0   0.000    0.000    0.000  1
 10   1    1  1 0 2     9  16   100   80   80     0.00000  29.22393 1.68760e-002 26014 45221  -0.00  15.00  -0.00    8.97    0.00   33.47  3.000  0.300 0 2 0 2  3.000  3.000  10.68    0.00     0.00    0.00   1   90.00     0    0    0    39   0.0  1   1    4    0   0.000    0.000    0.000  1
 11   1    1  1 0 2    10  16   100   80   80     0.00000  29.22393 1.68760e-002 25987 45173  -0.00  15.00  -0.00    8.11    0.00   30.28  3.000  0.300 0 2 0 2  3.000  3.000  10.68    0.00     0.00    0.00   1   90.00     0    0    0    39   0.0  1   1    4    0   0.000    0.000    0.000  1
 12   1    1  1 0 2    11  16   100   80   80     0.00000  29.22393 1.68760e-002 26187 45522  -0.00  15.00  -0.00    7.26    0.00   27.09  3.000  0.300 0 2 0 2  3.000  3.000  10.68    0.00     0.00    0.00   1   90.00     0    0    0    39   0.0  1   1    4    0   0.000    0.000    0.000  1
 13   1    1  1 0 2    12  16   100   80   80     0.00000  29.22393 1.68760e-002 26282 45686  -0.00  15.00  -0.00    6.41    0.00   23.91  3.000  0.300 0 2 0 2  3.000  3.000  10.68    0.00     0.00    0.00   1   90.00     0    0    0    39   0.0  1   1    4    0   0.000    0.000    0.000  1
 14   1    1  1 0 2    13  16   100   80   80     0.00000  29.22393 1.68760e-002 26297 45713  -0.00  15.00  -0.00    5.55    0.00   20.72  3.000  0.300 0 2 0 2  3.000  3.000  10.68    0.00     0.00    0.00   1   90.00     0    0    0    39   0.0  1   1    4    0   0.000    0.000    0.000  1
 15   1    1  1 0 2    14  16   100   80   80     0.00000  29.22393 1.68760e-002 26612 46260  -0.00  15.00  -0.00    4.70    0.00   17.53  3.000  0.300 0 2 0 2  3.000  3.000  10.68    0.00     0.00    0.00   1   90.00     0    0    0    39   0.0  1   1    4    0   0.000    0.000    0.000  1
 16   1    1  1 0 2    15  16   100   80   80     0.00000  29.22393 1.68760e-002 26706 46423  -0.00  15.00  -0.00    3.84    0.00   14.34  3.000  0.300 0 2 0 2  3.000  3.000  10.68    0.00     0.00    0.00   1   90.00     0    0    0    39   0.0  1   1    4    0   0.000    0.000    0.000  1
 17   1    1  1 0 2    16  16   100   80   80     0.00000  29.22393 1.68760e-002 26655 46335  -0.00  15.00  -0.00    2.99    0.00   11.16  3.000  0.300 0 2 0 2  3.000  3.000  10.68    0.00     0.00    0.00   1   90.00     0    0    0    39   0.0  1   1    4    0   0.000    0.000    0.000  1
 18   1    1  1 0 2    17  16   100   80   80     0.00000  29.22393 1.68760e-002 27142 47182  -0.00  15.00  -0.00    2.14    0.00    7.97  3.000  0.300 0 2 0 2  3.000  3.000  10.68    0.00     0.00    0.00   1   90.00     0    0    0    39   0.0  1   1    4    0   0.000    0.000    0.000  1
 19   1    1  1 0 2    18  16   100   80   80     0.00000  29.22393 1.68760e-002 26984 46906  -0.00  15.00  -0.00    1.28    0.00    4.78  3.000  0.300 0 2 0 2  3.000  3.000  10.68    0.00     0.00    0.00   1   90.00     0    0    0    39   0.0  1   1    4    0   0.000    0.000    0.000  1
 20   1    1  1 0 2    19  16   100   80   80     0.00000  29.22393 1.68760e-002 27278 47417  -0.00  15.00  -0.00    0.43    0.00    1.59  3.000  0.300 0 2 0 2  3.000  3.000  10.68    0.00     0.00    0.00   1   90.00     0    0    0    39   0.0  1   1    4    0   0.000    0.000    0.000  1
 21   1    1  1 0 2    20  16   100   80   80     0.00000  29.22393 1.68760e-002 27215 47308  -0.00  15.00  -0.00   -0.43    0.00   -1.59  3.000  0.300 0 2 0 2  3.000  3.000  10.68    0.00     0.00    0.00   1   90.00     0    0    0    39   0.0  1   1    4    0   0.000    0.000    0.000  1
 22   1    1  1 0 2    21  16   100   80   80     0.00000  29.22393 1.68760e-002 27429 47680  -0.00  15.00  -0.00   -1.28    0.00   -4.78  3.000  0.300 0 2 0 2  3.000  3.000  10.68    0.00     0.00    0.00   1   90.00     0    0    0    39   0.0  1   1    4    0   0.000    0.000    0.000  1
 23   1    1  1 0 2    22  16   100   80   80     0.00000  29.22393 1.68760e-002 26783 46557  -0.00  15.00  -0.00   -2.14    0.00   -7.97  3.000  0.300 0 2 0 2  3.000  3.000  10.68    0.00     0.00    0.00   1   90.00     0    0    0    39   0.0  1   1    4    0   0.000    0.000    0.000  1
 24   1    1  1 0 2    23  16   100   80   80     0.00000  29.22393 1.68760e-002 27440 47699  -0.00  15.00  -0.00   -2.99    0.00  -11.16  3.000  0.300 0 2 0 2  3.000  3.000  10.68    0.00     0.00    0.00   1   90.00     0    0    0    39   0.0  1   1    4    0   0.000    0.000    0.000  1
 25   1    1  1 0 2    24  16   100   80   80     0.00000  29.22393 1.68760e-002 27745 48230  -0.00  15.00  -0.00   -3.84    0.00  -14.34  3.000  0.300 0 2 0 2  3.000  3.000  10.68    0.00     0.00    0.00   1   90.00     0    0    0    39   0.0  1   1    4    0   0.000    0.000    0.000  1
 26   1    1  1 0 2    25  16   100   80   80     0.00000  29.22393 1.68760e-002 27124 47150  -0.00  15.00  -0.00   -4.70    0.00  -17.53  3.000  0.300 0 2 0 2  3.000  3.000  10.68    0.00     0.00    0.00   1   90.00     0    0    0    39   0.0  1   1    4    0   0.000    0.000    0.000  1
 27   1    1  1 0 2    26  16   100   80   80     0.00000  29.22393 1.68760e-002 27470 47751  -0.00  15.00  -0.00   -5.55    0.00  -20.72  3.000  0.300 0 2 0 2  3.000  3.000  10.68    0.00     0.00    0.00   1   90.00     0    0    0    39   0.0  1   1    4    0   0.000    0.000    0.000  1
 28   1    1  1 0 2    27  16   100   80   80     0.00000  29.22393 1.68760e-002 27779 48289  -0.00  15.00  -0.00   -6.41    0.00  -23.91  3.000  0.300 0 2 0 2  3.000  3.000  10.68    0.00     0.00    0.00   1   90.00     0    0    0    39   0.0  1   1    4    0   0.000    0.000    0.000  1
 29   1    1  1 0 2    28  16   100   80   80     0.00000  29.22393 1.68760e-002 25858 44949  -0.00  15.00  -0.00   -7.26    0.00  -27.09  3.000  0.300 0 2 0 2  3.000  3.000  10.68    0.00     0.00    0.00   1   90.00     0    0    0    39   0.0  1   1    4    0   0.000    0.000    0.000  1
 30   1    1  1 0 2    29  16   100   80   80     0.00000  29.22393 1.68760e-002 24754 43031  -0.00  15.00  -0.00   -8.11    0.00  -30.28  3.000  0.300 0 2 0 2  3.000  3.000  10.68    0.00     0.00    0.00   1   90.00     0    0    0    39   0.0  1   1    4    0   0.000    0.000    0.000  1
 31   1    1  1 0 2    30  16   100   80   80     0.00000  29.22393 1.68760e-002 23793 41361  -0.00  15.00  -0.00   -8.97    0.00  -33.47  3.000  0.300 0 2 0 2  3.000  3.000  10.68    0.00     0.00    0.00   1   90.00     0    0    0    39   0.0  1   1    4    0   0.000    0.000    0.000  1
 32   1    1  1 0 2    31  16   100   80   80     0.00000  29.22393 1.68760e-002 23169 40275  -0.00  15.00  -0.00   -9.82    0.00  -36.66  3.000  0.300 0 2 0 2  3.000  3.000  10.68    0.00     0.00    0.00   1   90.00     0    0    0    39   0.0  1   1    4    0   0.000    0.000    0.000  1
 33   1    1  1 0 2    32  16   100   80   80     0.00000  29.22393 1.68760e-002 23015 40008  -0.00  15.00  -0.00  -10.68    0.00  -39.84  3.000  0.300 0 2 0 2  3.000  3.000  10.68    0.00     0.00    0.00   1   90.00     0    0    0    39   0.0  1   1    4    0   0.000    0.000    0.000  1
 34   1    1  1 0 2    33  16   100   80   80     0.00000  29.22393 1.68760e-002 22656 39383  -0.00  15.00  -0.00  -11.53    0.00  -43.03  3.000  0.300 0 2 0 2  3.000  3.000  10.68    0.00     0.00    0.00   1   90.00     0    0    0    39   0.0  1   1    4    0   0.000    0.000    0.000  1
 35   1    1  1 0 2    34  16   100   80   80     0.00000  29.22393 1.68760e-002  2086  3627  -0.00  15.00  -0.00  -12.38    0.00  -46.22  3.000  0.300 0 2 0 2  3.000  3.000  10.68    0.00     0.00    0.00   1   90.00     0    0    0    39   0.0  1   1    4    0   0.000    0.000    0.000  1
 36   1    1  1 0 2    35  16   100   80   80     0.00000  29.22393 1.68760e-002   156   271  -0.00  15.00  -0.00  -13.24    0.00  -49.41  3.000  0.300 0 2 0 2  3.000  3.000  10.68    0.00     0.00    0.00   1   90.00     0    0    0    39   0.0  1   1    4    0   0.000    0.000    0.000  1
 37   1    1  1 0 2    36  16   100   80   80     0.00000  29.22393 1.68760e-002    69   120  -0.00  15.00  -0.00  -14.09    0.00  -52.59  3.000  0.300 0 2 0 2  3.000  3.000  10.68    0.00     0.00    0.00   1   90.00     0    0    0    39   0.0  1   1    4    0   0.000    0.000    0.000  1
 38   1    1  1 0 2    37  16   100   80   80     0.00000  29.22393 1.68760e-002    62   108  -0.00  15.00  -0.00  -14.95    0.00  -55.78  3.000  0.300 0 2 0 2  3.000  3.000  10.68    0.00     0.00    0.00   1   90.00     0    0    0    39   0.0  1   1    4    0   0.000    0.000    0.000  1
 39   1    1  1 0 2    38  16   100   80   80     0.00000  29.22393 1.68760e-002    63   110  -0.00  15.00  -0.00  -15.80    0.00  -58.97  3.000  0.300 0 2 0 2  3.000  3.000  10.68    0.00     0.00    0.00   1   90.00     0    0    0    39   0.0  1   1    4    0   0.000    0.000    0.000  1
 40   1    1  1 0 2    39  16   100   80   80     0.00000  29.22393 1.68760e-002    66   114  -0.00  15.00  -0.00  -16.66    0.00  -62.16  3.000  0.300 0 2 0 2  3.000  3.000  10.68    0.00     0.00    0.00   1   90.00     0    0    0    39   0.0  1   1    4    0   0.000    0.000    0.000  1

# === END OF DATA DESCRIPTION FILE ===============================================
