# === DATA DESCRIPTION FILE ======================================================
#
# CAUTION - Investigational device.
# Limited by Federal Law to investigational use.
#
# Dataset name: E:\\Export\\Phantom_EPI_3mm_cor_SENSE_8_1
#
# CLINICAL TRYOUT             Research image export tool     V4.2
#
# === GENERAL INFORMATION ========================================================
#
.    Patient name                       :   Phantom
.    Examination name                   :   Orientation Par Rec
.    Protocol name                      :   EPI_3mm_cor SENSE
.    Examination date/time              :   2014.08.05 / 11:08:56
.    Series Type                        :   Image   MRSERIES
.    Acquisition nr                     :   8
.    Reconstruction nr                  :   1
.    Scan Duration [sec]                :   7.97
.    Max. number of cardiac phases      :   1
.    Max. number of echoes              :   1
.    Max. number of slices/locations    :   40
.    Max. number of dynamics            :   1
.    Max. number of mixes               :   1
.    Patient position                   :   Head First Supine
.    Preparation direction              :   Right-Left
.    Technique                          :   FEEPI
.    Scan resolution  (x, y)            :   80  78
.    Scan mode                          :   MS
.    Repetition time [ms]               :   2000.000  
.    FOV (ap,fh,rl) [mm]                :   131.700  240.000  240.000
.    Water Fat shift [pixels]           :   8.381
.    Angulation midslice(ap,fh,rl)[degr]:   0.000  0.000  0.000
.    Off Centre midslice(ap,fh,rl) [mm] :   0.000  0.000  0.000
.    Flow compensation <0=no 1=yes> ?   :   0
.    Presaturation     <0=no 1=yes> ?   :   0
.    Phase encoding velocity [cm/sec]   :   0.000000  0.000000  0.000000
.    MTC               <0=no 1=yes> ?   :   0
.    SPIR              <0=no 1=yes> ?   :   0
.    EPI factor        <0,1=no EPI>     :   39
.    Dynamic scan      <0=no 1=yes> ?   :   1
.    Diffusion         <0=no 1=yes> ?   :   0
.    Diffusion echo time [ms]           :   0.0000
.    Max. number of diffusion values    :   1
.    Max. number of gradient orients    :   1
.    Number of label types   <0=no ASL> :   0
#
# === PIXEL VALUES =============================================================
#  PV = pixel value in REC file, FP = floating point value, DV = displayed value on console
#  RS = rescale slope,           RI = rescale intercept,    SS = scale slope
#  DV = PV * RS + RI             FP = DV / (RS * SS)
#
# === IMAGE INFORMATION DEFINITION =============================================
#  The rest of this file contains ONE line per image, this line contains the following information:
#
#  slice number                             (integer)
#  echo number                              (integer)
#  dynamic scan number                      (integer)
#  cardiac phase number                     (integer)
#  image_type_mr                            (integer)
#  scanning sequence                        (integer)
#  index in REC file (in images)            (integer)
#  image pixel size (in bits)               (integer)
#  scan percentage                          (integer)
#  recon resolution (x y)                   (2*integer)
#  rescale intercept                        (float)
#  rescale slope                            (float)
#  scale slope                              (float)
#  window center                            (integer)
#  window width                             (integer)
#  image angulation (ap,fh,rl in degrees )  (3*float)
#  image offcentre (ap,fh,rl in mm )        (3*float)
#  slice thickness (in mm )                 (float)
#  slice gap (in mm )                       (float)
#  image_display_orientation                (integer)
#  slice orientation ( TRA/SAG/COR )        (integer)
#  fmri_status_indication                   (integer)
#  image_type_ed_es  (end diast/end syst)   (integer)
#  pixel spacing (x,y) (in mm)              (2*float)
#  echo_time                                (float)
#  dyn_scan_begin_time                      (float)
#  trigger_time                             (float)
#  diffusion_b_factor                       (float)
#  number of averages                       (integer)
#  image_flip_angle (in degrees)            (float)
#  cardiac frequency   (bpm)                (integer)
#  minimum RR-interval (in ms)              (integer)
#  maximum RR-interval (in ms)              (integer)
#  TURBO factor  <0=no turbo>               (integer)
#  Inversion delay (in ms)                  (float)
#  diffusion b value number    (imagekey!)  (integer)
#  gradient orientation number (imagekey!)  (integer)
#  contrast type                            (string)
#  diffusion anisotropy type                (string)
#  diffusion (ap, fh, rl)                   (3*float)
#  label type (ASL)            (imagekey!)  (integer)
#
# === IMAGE INFORMATION ==========================================================
#  sl ec  dyn ph ty    idx pix scan% rec size                (re)scale              window        angulation              offcentre        thick   gap   info      spacing     echo     dtime   ttime    diff  avg  flip    freq   RR-int  turbo delay b grad cont anis         diffusion       L.ty

  1   1    1  1 0 2     0  16   100   80   80     0.00000 383.84616 1.85950e-002  1070  1860   0.00  -0.00  -0.00  -64.35    0.00    0.00  3.000  0.300 0 3 0 2  3.000  3.000  10.98    0.00     0.00    0.00   1   90.00     0    0    0    39   0.0  1   1    4    0   0.000    0.000    0.000  1
  2   1    1  1 0 2     1  16   100   80   80     0.00000 383.84616 1.85950e-002   978  1701   0.00  -0.00  -0.00  -61.05    0.00    0.00  3.000  0.300 0 3 0 2  3.000  3.000  10.98    0.00     0.00    0.00   1   90.00     0    0    0    39   0.0  1   1    4    0   0.000    0.000    0.000  1
  3   1    1  1 0 2     2  16   100   80   80     0.00000 383.84616 1.85950e-002   854  1485   0.00  -0.00  -0.00  -57.75    0.00    0.00  3.000  0.300 0 3 0 2  3.000  3.000  10.98    0.00     0.00    0.00   1   90.00     0    0    0    39   0.0  1   1    4    0   0.000    0.000    0.000  1
  4   1    1  1 0 2     3  16   100   80   80     0.00000 383.84616 1.85950e-002  1079  1876   0.00  -0.00  -0.00  -54.45    0.00    0.00  3.000  0.300 0 3 0 2  3.000  3.000  10.98    0.00     0.00    0.00   1   90.00     0    0    0    39   0.0  1   1    4    0   0.000    0.000    0.000  1
  5   1    1  1 0 2     4  16   100   80   80     0.00000 383.84616 1.85950e-002  1606  2792   0.00  -0.00  -0.00  -51.15    0.00    0.00  3.000  0.300 0 3 0 2  3.000  3.000  10.98    0.00     0.00    0.00   1   90.00     0    0    0    39   0.0  1   1    4    0   0.000    0.000    0.000  1
  6   1    1  1 0 2     5  16   100   80   80     0.00000 383.84616 1.85950e-002  1191  2070   0.00  -0.00  -0.00  -47.85    0.00    0.00  3.000  0.300 0 3 0 2  3.000  3.000  10.98    0.00     0.00    0.00   1   90.00     0    0    0    39   0.0  1   1    4    0   0.000    0.000    0.000  1
  7   1    1  1 0 2     6  16   100   80   80     0.00000 383.84616 1.85950e-002  2928  5090   0.00  -0.00  -0.00  -44.55    0.00    0.00  3.000  0.300 0 3 0 2  3.000  3.000  10.98    0.00     0.00    0.00   1   90.00     0    0    0    39   0.0  1   1    4    0   0.000    0.000    0.000  1
  8   1    1  1 0 2     7  16   100   80   80     0.00000 383.84616 1.85950e-002 19125 33244   0.00  -0.00  -0.00  -41.25    0.00    0.00  3.000  0.300 0 3 0 2  3.000  3.000  10.98    0.00     0.00    0.00   1   90.00     0    0    0    39   0.0  1   1    4    0   0.000    0.000    0.000  1
  9   1    1  1 0 2     8  16   100   80   80     0.00000 383.84616 1.85950e-002 14988 26055   0.00  -0.00  -0.00  -37.95    0.00    0.00  3.000  0.300 0 3 0 2  3.000  3.000  10.98    0.00     0.00    0.00   1   90.00     0    0    0    39   0.0  1   1    4    0   0.000    0.000    0.000  1
 10   1    1  1 0 2     9  16   100   80   80     0.00000 383.84616 1.85950e-002  1530  2659   0.00  -0.00  -0.00  -34.65    0.00    0.00  3.000  0.300 0 3 0 2  3.000  3.000  10.98    0.00     0.00    0.00   1   90.00     0    0    0    39   0.0  1   1    4    0   0.000    0.000    0.000  1
 11   1    1  1 0 2    10  16   100   80   80     0.00000 383.84616 1.85950e-002  1147  1994   0.00  -0.00  -0.00  -31.35    0.00    0.00  3.000  0.300 0 3 0 2  3.000  3.000  10.98    0.00     0.00    0.00   1   90.00     0    0    0    39   0.0  1   1    4    0   0.000    0.000    0.000  1
 12   1    1  1 0 2    11  16   100   80   80     0.00000 383.84616 1.85950e-002  1874  3257   0.00  -0.00  -0.00  -28.05    0.00    0.00  3.000  0.300 0 3 0 2  3.000  3.000  10.98    0.00     0.00    0.00   1   90.00     0    0    0    39   0.0  1   1    4    0   0.000    0.000    0.000  1
 13   1    1  1 0 2    12  16   100   80   80     0.00000 383.84616 1.85950e-002  2386  4147   0.00  -0.00  -0.00  -24.75    0.00    0.00  3.000  0.300 0 3 0 2  3.000  3.000  10.98    0.00     0.00    0.00   1   90.00     0    0    0    39   0.0  1   1    4    0   0.000    0.000    0.000  1
 14   1    1  1 0 2    13  16   100   80   80     0.00000 383.84616 1.85950e-002  1822  3167   0.00  -0.00  -0.00  -21.45    0.00    0.00  3.000  0.300 0 3 0 2  3.000  3.000  10.98    0.00     0.00    0.00   1   90.00     0    0    0    39   0.0  1   1    4    0   0.000    0.000    0.000  1
 15   1    1  1 0 2    14  16   100   80   80     0.00000 383.84616 1.85950e-002  2660  4625   0.00  -0.00  -0.00  -18.15    0.00    0.00  3.000  0.300 0 3 0 2  3.000  3.000  10.98    0.00     0.00    0.00   1   90.00     0    0    0    39   0.0  1   1    4    0   0.000    0.000    0.000  1
 16   1    1  1 0 2    15  16   100   80   80     0.00000 383.84616 1.85950e-002 50239 87332   0.00  -0.00  -0.00  -14.85    0.00    0.00  3.000  0.300 0 3 0 2  3.000  3.000  10.98    0.00     0.00    0.00   1   90.00     0    0    0    39   0.0  1   1    4    0   0.000    0.000    0.000  1
 17   1    1  1 0 2    16  16   100   80   80     0.00000 383.84616 1.85950e-002 222975 387602   0.00  -0.00  -0.00  -11.55    0.00    0.00  3.000  0.300 0 3 0 2  3.000  3.000  10.98    0.00     0.00    0.00   1   90.00     0    0    0    39   0.0  1   1    4    0   0.000    0.000    0.000  1
 18   1    1  1 0 2    17  16   100   80   80     0.00000 383.84616 1.85950e-002 330374 574296   0.00  -0.00  -0.00   -8.25    0.00    0.00  3.000  0.300 0 3 0 2  3.000  3.000  10.98    0.00     0.00    0.00   1   90.00     0    0    0    39   0.0  1   1    4    0   0.000    0.000    0.000  1
 19   1    1  1 0 2    18  16   100   80   80     0.00000 383.84616 1.85950e-002 324395 563901   0.00  -0.00  -0.00   -4.95    0.00    0.00  3.000  0.300 0 3 0 2  3.000  3.000  10.98    0.00     0.00    0.00   1   90.00     0    0    0    39   0.0  1   1    4    0   0.000    0.000    0.000  1
 20   1    1  1 0 2    19  16   100   80   80     0.00000 383.84616 1.85950e-002 317227 551441   0.00  -0.00  -0.00   -1.65    0.00    0.00  3.000  0.300 0 3 0 2  3.000  3.000  10.98    0.00     0.00    0.00   1   90.00     0    0    0    39   0.0  1   1    4    0   0.000    0.000    0.000  1
 21   1    1  1 0 2    20  16   100   80   80     0.00000 383.84616 1.85950e-002 321375 558651   0.00  -0.00  -0.00    1.65    0.00    0.00  3.000  0.300 0 3 0 2  3.000  3.000  10.98    0.00     0.00    0.00   1   90.00     0    0    0    39   0.0  1   1    4    0   0.000    0.000    0.000  1
 22   1    1  1 0 2    21  16   100   80   80     0.00000 383.84616 1.85950e-002 329987 573621   0.00  -0.00  -0.00    4.95    0.00    0.00  3.000  0.300 0 3 0 2  3.000  3.000  10.98    0.00     0.00    0.00   1   90.00     0    0    0    39   0.0  1   1    4    0   0.000    0.000    0.000  1
 23   1    1  1 0 2    22  16   100   80   80     0.00000 383.84616 1.85950e-002 331076 575515   0.00  -0.00  -0.00    8.25    0.00    0.00  3.000  0.300 0 3 0 2  3.000  3.000  10.98    0.00     0.00    0.00   1   90.00     0    0    0    39   0.0  1   1    4    0   0.000    0.000    0.000  1
 24   1    1  1 0 2    23  16   100   80   80     0.00000 383.84616 1.85950e-002 341217 593144   0.00  -0.00  -0.00   11.55    0.00    0.00  3.000  0.300 0 3 0 2  3.000  3.000  10.98    0.00     0.00    0.00   1   90.00     0    0    0    39   0.0  1   1    4    0   0.000    0.000    0.000  1
 25   1    1  1 0 2    24  16   100   80   80     0.00000 383.84616 1.85950e-002 346832 602903   0.00  -0.00  -0.00   14.85    0.00    0.00  3.000  0.300 0 3 0 2  3.000  3.000  10.98    0.00     0.00    0.00   1   90.00     0    0    0    39   0.0  1   1    4    0   0.000    0.000    0.000  1
 26   1    1  1 0 2    25  16   100   80   80     0.00000 383.84616 1.85950e-002 348800 606325   0.00  -0.00  -0.00   18.15    0.00    0.00  3.000  0.300 0 3 0 2  3.000  3.000  10.98    0.00     0.00    0.00   1   90.00     0    0    0    39   0.0  1   1    4    0   0.000    0.000    0.000  1
 27   1    1  1 0 2    26  16   100   80   80     0.00000 383.84616 1.85950e-002 354770 616703   0.00  -0.00  -0.00   21.45    0.00    0.00  3.000  0.300 0 3 0 2  3.000  3.000  10.98    0.00     0.00    0.00   1   90.00     0    0    0    39   0.0  1   1    4    0   0.000    0.000    0.000  1
 28   1    1  1 0 2    27  16   100   80   80     0.00000 383.84616 1.85950e-002 350225 608803   0.00  -0.00  -0.00   24.75    0.00    0.00  3.000  0.300 0 3 0 2  3.000  3.000  10.98    0.00     0.00    0.00   1   90.00     0    0    0    39   0.0  1   1    4    0   0.000    0.000    0.000  1
 29   1    1  1 0 2    28  16   100   80   80     0.00000 383.84616 1.85950e-002 343897 597803   0.00  -0.00  -0.00   28.05    0.00    0.00  3.000  0.300 0 3 0 2  3.000  3.000  10.98    0.00     0.00    0.00   1   90.00     0    0    0    39   0.0  1   1    4    0   0.000    0.000    0.000  1
 30   1    1  1 0 2    29  16   100   80   80     0.00000 383.84616 1.85950e-002 345817 601139   0.00  -0.00  -0.00   31.35    0.00    0.00  3.000  0.300 0 3 0 2  3.000  3.000  10.98    0.00     0.00    0.00   1   90.00     0    0    0    39   0.0  1   1    4    0   0.000    0.000    0.000  1
 31   1    1  1 0 2    30  16   100   80   80     0.00000 383.84616 1.85950e-002 341615 593835   0.00  -0.00  -0.00   34.65    0.00    0.00  3.000  0.300 0 3 0 2  3.000  3.000  10.98    0.00     0.00    0.00   1   90.00     0    0    0    39   0.0  1   1    4    0   0.000    0.000    0.000  1
 32   1    1  1 0 2    31  16   100   80   80     0.00000 383.84616 1.85950e-002 347921 604798   0.00  -0.00  -0.00   37.95    0.00    0.00  3.000  0.300 0 3 0 2  3.000  3.000  10.98    0.00     0.00    0.00   1   90.00     0    0    0    39   0.0  1   1    4    0   0.000    0.000    0.000  1
 33   1    1  1 0 2    32  16   100   80   80     0.00000 383.84616 1.85950e-002 352208 612249   0.00  -0.00  -0.00   41.25    0.00    0.00  3.000  0.300 0 3 0 2  3.000  3.000  10.98    0.00     0.00    0.00   1   90.00     0    0    0    39   0.0  1   1    4    0   0.000    0.000    0.000  1
 34   1    1  1 0 2    33  16   100   80   80     0.00000 383.84616 1.85950e-002 356572 619836   0.00  -0.00  -0.00   44.55    0.00    0.00  3.000  0.300 0 3 0 2  3.000  3.000  10.98    0.00     0.00    0.00   1   90.00     0    0    0    39   0.0  1   1    4    0   0.000    0.000    0.000  1
 35   1    1  1 0 2    34  16   100   80   80     0.00000 383.84616 1.85950e-002 348625 606021   0.00  -0.00  -0.00   47.85    0.00    0.00  3.000  0.300 0 3 0 2  3.000  3.000  10.98    0.00     0.00    0.00   1   90.00     0    0    0    39   0.0  1   1    4    0   0.000    0.000    0.000  1
 36   1    1  1 0 2    35  16   100   80   80     0.00000 383.84616 1.85950e-002 353473 614449   0.00  -0.00  -0.00   51.15    0.00    0.00  3.000  0.300 0 3 0 2  3.000  3.000  10.98    0.00     0.00    0.00   1   90.00     0    0    0    39   0.0  1   1    4    0   0.000    0.000    0.000  1
 37   1    1  1 0 2    36  16   100   80   80     0.00000 383.84616 1.85950e-002 362771 630611   0.00  -0.00  -0.00   54.45    0.00    0.00  3.000  0.300 0 3 0 2  3.000  3.000  10.98    0.00     0.00    0.00   1   90.00     0    0    0    39   0.0  1   1    4    0   0.000    0.000    0.000  1
 38   1    1  1 0 2    37  16   100   80   80     0.00000 383.84616 1.85950e-002 362080 629410   0.00  -0.00  -0.00   57.75    0.00    0.00  3.000  0.300 0 3 0 2  3.000  3.000  10.98    0.00     0.00    0.00   1   90.00     0    0    0    39   0.0  1   1    4    0   0.000    0.000    0.000  1
 39   1    1  1 0 2    38  16   100   80   80     0.00000 383.84616 1.85950e-002 361879 629060   0.00  -0.00  -0.00   61.05    0.00    0.00  3.000  0.300 0 3 0 2  3.000  3.000  10.98    0.00     0.00    0.00   1   90.00     0    0    0    39   0.0  1   1    4    0   0.000    0.000    0.000  1
 40   1    1  1 0 2    39  16   100   80   80     0.00000 383.84616 1.85950e-002 369991 643162   0.00  -0.00  -0.00   64.35    0.00    0.00  3.000  0.300 0 3 0 2  3.000  3.000  10.98    0.00     0.00    0.00   1   90.00     0    0    0    39   0.0  1   1    4    0   0.000    0.000    0.000  1

# === END OF DATA DESCRIPTION FILE ===============================================
