# === DATA DESCRIPTION FILE ======================================================
#
# CAUTION - Investigational device.
# Limited by Federal Law to investigational use.
#
# Dataset name: E:\\Export\\T1_3echo_mag_real_imag_phase
#
# CLINICAL TRYOUT             Research image export tool     V4.2
#
# === GENERAL INFORMATION ========================================================
#
.    Patient name                       :   anon
.    Examination name                   :   anon
.    Protocol name                      :   anon
.    Examination date/time              :   anon
.    Series Type                        :   Image   MRSERIES
.    Acquisition nr                     :   15
.    Reconstruction nr                  :   1
.    Scan Duration [sec]                :   11.5
.    Max. number of cardiac phases      :   1
.    Max. number of echoes              :   3
.    Max. number of slices/locations    :   30
.    Max. number of dynamics            :   1
.    Max. number of mixes               :   1
.    Patient position                   :   Head First Supine
.    Preparation direction              :   Anterior-Posterior
.    Technique                          :   T1TFE
.    Scan resolution  (x, y)            :   76  75
.    Scan mode                          :   3D
.    Repetition time [ms]               :   6.746
.    FOV (ap,fh,rl) [mm]                :   224.000  224.000  90.000
.    Water Fat shift [pixels]           :   0.701
.    Angulation midslice(ap,fh,rl)[degr]:   0.000  0.000  0.000
.    Off Centre midslice(ap,fh,rl) [mm] :   5.090  8.176  -4.208
.    Flow compensation <0=no 1=yes> ?   :   0
.    Presaturation     <0=no 1=yes> ?   :   0
.    Phase encoding velocity [cm/sec]   :   0.000000  0.000000  0.000000
.    MTC               <0=no 1=yes> ?   :   0
.    SPIR              <0=no 1=yes> ?   :   0
.    EPI factor        <0,1=no EPI>     :   1
.    Dynamic scan      <0=no 1=yes> ?   :   0
.    Diffusion         <0=no 1=yes> ?   :   0
.    Diffusion echo time [ms]           :   0.0000
.    Max. number of diffusion values    :   1
.    Max. number of gradient orients    :   1
.    Number of label types   <0=no ASL> :   0
#
# === PIXEL VALUES =============================================================
#  PV = pixel value in REC file, FP = floating point value, DV = displayed value on console
#  RS = rescale slope,           RI = rescale intercept,    SS = scale slope
#  DV = PV * RS + RI             FP = DV / (RS * SS)
#
# === IMAGE INFORMATION DEFINITION =============================================
#  The rest of this file contains ONE line per image, this line contains the following information:
#
#  slice number                             (integer)
#  echo number                              (integer)
#  dynamic scan number                      (integer)
#  cardiac phase number                     (integer)
#  image_type_mr                            (integer)
#  scanning sequence                        (integer)
#  index in REC file (in images)            (integer)
#  image pixel size (in bits)               (integer)
#  scan percentage                          (integer)
#  recon resolution (x y)                   (2*integer)
#  rescale intercept                        (float)
#  rescale slope                            (float)
#  scale slope                              (float)
#  window center                            (integer)
#  window width                             (integer)
#  image angulation (ap,fh,rl in degrees )  (3*float)
#  image offcentre (ap,fh,rl in mm )        (3*float)
#  slice thickness (in mm )                 (float)
#  slice gap (in mm )                       (float)
#  image_display_orientation                (integer)
#  slice orientation ( TRA/SAG/COR )        (integer)
#  fmri_status_indication                   (integer)
#  image_type_ed_es  (end diast/end syst)   (integer)
#  pixel spacing (x,y) (in mm)              (2*float)
#  echo_time                                (float)
#  dyn_scan_begin_time                      (float)
#  trigger_time                             (float)
#  diffusion_b_factor                       (float)
#  number of averages                       (integer)
#  image_flip_angle (in degrees)            (float)
#  cardiac frequency   (bpm)                (integer)
#  minimum RR-interval (in ms)              (integer)
#  maximum RR-interval (in ms)              (integer)
#  TURBO factor  <0=no turbo>               (integer)
#  Inversion delay (in ms)                  (float)
#  diffusion b value number    (imagekey!)  (integer)
#  gradient orientation number (imagekey!)  (integer)
#  contrast type                            (string)
#  diffusion anisotropy type                (string)
#  diffusion (ap, fh, rl)                   (3*float)
#  label type (ASL)            (imagekey!)  (integer)
#
# === IMAGE INFORMATION ==========================================================
#  sl ec  dyn ph ty    idx pix scan% rec size                (re)scale              window        angulation              offcentre        thick   gap   info      spacing     echo     dtime   ttime    diff  avg  flip    freq   RR-int  turbo delay b grad cont anis         diffusion       L.ty

 16   1    1  1 1 2     0  16    98   80   80 -5272.00000   2.57485 4.89549e-005  -847  2280   0.00  -0.00  -0.00    5.09    8.18   -5.71  3.000  0.000 0 2 0 2  2.800  2.800   1.29    0.00     0.00    0.00   1    8.00     0    0    0   225   0.0  1   1    7    0   0.000    0.000    0.000  1
 16   1    1  1 2 2     1  16    98   80   80 -5272.00000   2.57485 4.89549e-005    76  1070   0.00  -0.00  -0.00    5.09    8.18   -5.71  3.000  0.000 0 2 0 2  2.800  2.800   1.29    0.00     0.00    0.00   1    8.00     0    0    0   225   0.0  1   1    7    0   0.000    0.000    0.000  1
 16   1    1  1 0 2     2  16    98   80   80     0.00000   1.28767 9.78947e-005  1070  1860   0.00  -0.00  -0.00    5.09    8.18   -5.71  3.000  0.000 0 2 0 2  2.800  2.800   1.29    0.00     0.00    0.00   1    8.00     0    0    0   225   0.0  1   1    7    0   0.000    0.000    0.000  1
 16   1    1  1 3 2     3  16    98   80   80 -3142.00000   1.53455 6.51740e+002     0  6284   0.00  -0.00  -0.00    5.09    8.18   -5.71  3.000  0.000 0 2 0 2  2.800  2.800   1.29    0.00     0.00    0.00   1    8.00     0    0    0   225   0.0  1   1    7    0   0.000    0.000    0.000  1
 16   2    1  1 1 2     4  16    98   80   80 -5272.00000   2.57485 4.89549e-005  -689  2071   0.00  -0.00  -0.00    5.09    8.18   -5.71  3.000  0.000 0 2 0 2  2.800  2.800   3.28    0.00     0.00    0.00   1    8.00     0    0    0   225   0.0  1   1    7    0   0.000    0.000    0.000  1
 16   2    1  1 2 2     5  16    98   80   80 -5272.00000   2.57485 4.89549e-005   287  1581   0.00  -0.00  -0.00    5.09    8.18   -5.71  3.000  0.000 0 2 0 2  2.800  2.800   3.28    0.00     0.00    0.00   1    8.00     0    0    0   225   0.0  1   1    7    0   0.000    0.000    0.000  1
 16   2    1  1 0 2     6  16    98   80   80     0.00000   1.28767 9.78947e-005  1070  1860   0.00  -0.00  -0.00    5.09    8.18   -5.71  3.000  0.000 0 2 0 2  2.800  2.800   3.28    0.00     0.00    0.00   1    8.00     0    0    0   225   0.0  1   1    7    0   0.000    0.000    0.000  1
 16   2    1  1 3 2     7  16    98   80   80 -3142.00000   1.53455 6.51740e+002     0  6284   0.00  -0.00  -0.00    5.09    8.18   -5.71  3.000  0.000 0 2 0 2  2.800  2.800   3.28    0.00     0.00    0.00   1    8.00     0    0    0   225   0.0  1   1    7    0   0.000    0.000    0.000  1
 16   3    1  1 1 2     8  16    98   80   80 -5272.00000   2.57485 4.89549e-005  -321  2252   0.00  -0.00  -0.00    5.09    8.18   -5.71  3.000  0.000 0 2 0 2  2.800  2.800   5.27    0.00     0.00    0.00   1    8.00     0    0    0   225   0.0  1   1    7    0   0.000    0.000    0.000  1
 16   3    1  1 2 2     9  16    98   80   80 -5272.00000   2.57485 4.89549e-005   466  2433   0.00  -0.00  -0.00    5.09    8.18   -5.71  3.000  0.000 0 2 0 2  2.800  2.800   5.27    0.00     0.00    0.00   1    8.00     0    0    0   225   0.0  1   1    7    0   0.000    0.000    0.000  1
 16   3    1  1 0 2    10  16    98   80   80     0.00000   1.28767 9.78947e-005  1070  1860   0.00  -0.00  -0.00    5.09    8.18   -5.71  3.000  0.000 0 2 0 2  2.800  2.800   5.27    0.00     0.00    0.00   1    8.00     0    0    0   225   0.0  1   1    7    0   0.000    0.000    0.000  1
 16   3    1  1 3 2    11  16    98   80   80 -3142.00000   1.53455 6.51740e+002     0  6284   0.00  -0.00  -0.00    5.09    8.18   -5.71  3.000  0.000 0 2 0 2  2.800  2.800   5.27    0.00     0.00    0.00   1    8.00     0    0    0   225   0.0  1   1    7    0   0.000    0.000    0.000  1
 17   1    1  1 1 2    12  16    98   80   80 -5272.00000   2.57485 4.89549e-005  -978  2484   0.00  -0.00  -0.00    5.09    8.18   -8.71  3.000  0.000 0 2 0 2  2.800  2.800   1.29    0.00     0.00    0.00   1    8.00     0    0    0   225   0.0  1   1    7    0   0.000    0.000    0.000  1
 17   1    1  1 2 2    13  16    98   80   80 -5272.00000   2.57485 4.89549e-005    44  1009   0.00  -0.00  -0.00    5.09    8.18   -8.71  3.000  0.000 0 2 0 2  2.800  2.800   1.29    0.00     0.00    0.00   1    8.00     0    0    0   225   0.0  1   1    7    0   0.000    0.000    0.000  1
 17   1    1  1 0 2    14  16    98   80   80     0.00000   1.28767 9.78947e-005  1070  1860   0.00  -0.00  -0.00    5.09    8.18   -8.71  3.000  0.000 0 2 0 2  2.800  2.800   1.29    0.00     0.00    0.00   1    8.00     0    0    0   225   0.0  1   1    7    0   0.000    0.000    0.000  1
 17   1    1  1 3 2    15  16    98   80   80 -3142.00000   1.53455 6.51740e+002     0  6284   0.00  -0.00  -0.00    5.09    8.18   -8.71  3.000  0.000 0 2 0 2  2.800  2.800   1.29    0.00     0.00    0.00   1    8.00     0    0    0   225   0.0  1   1    7    0   0.000    0.000    0.000  1
 17   2    1  1 1 2    16  16    98   80   80 -5272.00000   2.57485 4.89549e-005  -797  2248   0.00  -0.00  -0.00    5.09    8.18   -8.71  3.000  0.000 0 2 0 2  2.800  2.800   3.28    0.00     0.00    0.00   1    8.00     0    0    0   225   0.0  1   1    7    0   0.000    0.000    0.000  1
 17   2    1  1 2 2    17  16    98   80   80 -5272.00000   2.57485 4.89549e-005   286  1422   0.00  -0.00  -0.00    5.09    8.18   -8.71  3.000  0.000 0 2 0 2  2.800  2.800   3.28    0.00     0.00    0.00   1    8.00     0    0    0   225   0.0  1   1    7    0   0.000    0.000    0.000  1
 17   2    1  1 0 2    18  16    98   80   80     0.00000   1.28767 9.78947e-005  1070  1860   0.00  -0.00  -0.00    5.09    8.18   -8.71  3.000  0.000 0 2 0 2  2.800  2.800   3.28    0.00     0.00    0.00   1    8.00     0    0    0   225   0.0  1   1    7    0   0.000    0.000    0.000  1
 17   2    1  1 3 2    19  16    98   80   80 -3142.00000   1.53455 6.51740e+002     0  6284   0.00  -0.00  -0.00    5.09    8.18   -8.71  3.000  0.000 0 2 0 2  2.800  2.800   3.28    0.00     0.00    0.00   1    8.00     0    0    0   225   0.0  1   1    7    0   0.000    0.000    0.000  1
 17   3    1  1 1 2    20  16    98   80   80 -5272.00000   2.57485 4.89549e-005  -440  2288   0.00  -0.00  -0.00    5.09    8.18   -8.71  3.000  0.000 0 2 0 2  2.800  2.800   5.27    0.00     0.00    0.00   1    8.00     0    0    0   225   0.0  1   1    7    0   0.000    0.000    0.000  1
 17   3    1  1 2 2    21  16    98   80   80 -5272.00000   2.57485 4.89549e-005   567  2202   0.00  -0.00  -0.00    5.09    8.18   -8.71  3.000  0.000 0 2 0 2  2.800  2.800   5.27    0.00     0.00    0.00   1    8.00     0    0    0   225   0.0  1   1    7    0   0.000    0.000    0.000  1
 17   3    1  1 0 2    22  16    98   80   80     0.00000   1.28767 9.78947e-005  1070  1860   0.00  -0.00  -0.00    5.09    8.18   -8.71  3.000  0.000 0 2 0 2  2.800  2.800   5.27    0.00     0.00    0.00   1    8.00     0    0    0   225   0.0  1   1    7    0   0.000    0.000    0.000  1
 17   3    1  1 3 2    23  16    98   80   80 -3142.00000   1.53455 6.51740e+002     0  6284   0.00  -0.00  -0.00    5.09    8.18   -8.71  3.000  0.000 0 2 0 2  2.800  2.800   5.27    0.00     0.00    0.00   1    8.00     0    0    0   225   0.0  1   1    7    0   0.000    0.000    0.000  1
 18   1    1  1 1 2    24  16    98   80   80 -5272.00000   2.57485 4.89549e-005  -879  2292   0.00  -0.00  -0.00    5.09    8.18  -11.71  3.000  0.000 0 2 0 2  2.800  2.800   1.29    0.00     0.00    0.00   1    8.00     0    0    0   225   0.0  1   1    7    0   0.000    0.000    0.000  1
 18   1    1  1 2 2    25  16    98   80   80 -5272.00000   2.57485 4.89549e-005    74   814   0.00  -0.00  -0.00    5.09    8.18  -11.71  3.000  0.000 0 2 0 2  2.800  2.800   1.29    0.00     0.00    0.00   1    8.00     0    0    0   225   0.0  1   1    7    0   0.000    0.000    0.000  1
 18   1    1  1 0 2    26  16    98   80   80     0.00000   1.28767 9.78947e-005  1070  1860   0.00  -0.00  -0.00    5.09    8.18  -11.71  3.000  0.000 0 2 0 2  2.800  2.800   1.29    0.00     0.00    0.00   1    8.00     0    0    0   225   0.0  1   1    7    0   0.000    0.000    0.000  1
 18   1    1  1 3 2    27  16    98   80   80 -3142.00000   1.53455 6.51740e+002     0  6284   0.00  -0.00  -0.00    5.09    8.18  -11.71  3.000  0.000 0 2 0 2  2.800  2.800   1.29    0.00     0.00    0.00   1    8.00     0    0    0   225   0.0  1   1    7    0   0.000    0.000    0.000  1
 18   2    1  1 1 2    28  16    98   80   80 -5272.00000   2.57485 4.89549e-005  -729  2051   0.00  -0.00  -0.00    5.09    8.18  -11.71  3.000  0.000 0 2 0 2  2.800  2.800   3.28    0.00     0.00    0.00   1    8.00     0    0    0   225   0.0  1   1    7    0   0.000    0.000    0.000  1
 18   2    1  1 2 2    29  16    98   80   80 -5272.00000   2.57485 4.89549e-005   282  1127   0.00  -0.00  -0.00    5.09    8.18  -11.71  3.000  0.000 0 2 0 2  2.800  2.800   3.28    0.00     0.00    0.00   1    8.00     0    0    0   225   0.0  1   1    7    0   0.000    0.000    0.000  1
 18   2    1  1 0 2    30  16    98   80   80     0.00000   1.28767 9.78947e-005  1070  1860   0.00  -0.00  -0.00    5.09    8.18  -11.71  3.000  0.000 0 2 0 2  2.800  2.800   3.28    0.00     0.00    0.00   1    8.00     0    0    0   225   0.0  1   1    7    0   0.000    0.000    0.000  1
 18   2    1  1 3 2    31  16    98   80   80 -3142.00000   1.53455 6.51740e+002     0  6284   0.00  -0.00  -0.00    5.09    8.18  -11.71  3.000  0.000 0 2 0 2  2.800  2.800   3.28    0.00     0.00    0.00   1    8.00     0    0    0   225   0.0  1   1    7    0   0.000    0.000    0.000  1
 18   3    1  1 1 2    32  16    98   80   80 -5272.00000   2.57485 4.89549e-005  -328  2043   0.00  -0.00  -0.00    5.09    8.18  -11.71  3.000  0.000 0 2 0 2  2.800  2.800   5.27    0.00     0.00    0.00   1    8.00     0    0    0   225   0.0  1   1    7    0   0.000    0.000    0.000  1
 18   3    1  1 2 2    33  16    98   80   80 -5272.00000   2.57485 4.89549e-005   456  1778   0.00  -0.00  -0.00    5.09    8.18  -11.71  3.000  0.000 0 2 0 2  2.800  2.800   5.27    0.00     0.00    0.00   1    8.00     0    0    0   225   0.0  1   1    7    0   0.000    0.000    0.000  1
 18   3    1  1 0 2    34  16    98   80   80     0.00000   1.28767 9.78947e-005  1070  1860   0.00  -0.00  -0.00    5.09    8.18  -11.71  3.000  0.000 0 2 0 2  2.800  2.800   5.27    0.00     0.00    0.00   1    8.00     0    0    0   225   0.0  1   1    7    0   0.000    0.000    0.000  1
 18   3    1  1 3 2    35  16    98   80   80 -3142.00000   1.53455 6.51740e+002     0  6284   0.00  -0.00  -0.00    5.09    8.18  -11.71  3.000  0.000 0 2 0 2  2.800  2.800   5.27    0.00     0.00    0.00   1    8.00     0    0    0   225   0.0  1   1    7    0   0.000    0.000    0.000  1
 19   1    1  1 1 2    36  16    98   80   80 -5272.00000   2.57485 4.89549e-005  -423  1427   0.00  -0.00  -0.00    5.09    8.18  -14.71  3.000  0.000 0 2 0 2  2.800  2.800   1.29    0.00     0.00    0.00   1    8.00     0    0    0   225   0.0  1   1    7    0   0.000    0.000    0.000  1
 19   1    1  1 2 2    37  16    98   80   80 -5272.00000   2.57485 4.89549e-005    84   775   0.00  -0.00  -0.00    5.09    8.18  -14.71  3.000  0.000 0 2 0 2  2.800  2.800   1.29    0.00     0.00    0.00   1    8.00     0    0    0   225   0.0  1   1    7    0   0.000    0.000    0.000  1
 19   1    1  1 0 2    38  16    98   80   80     0.00000   1.28767 9.78947e-005  1070  1860   0.00  -0.00  -0.00    5.09    8.18  -14.71  3.000  0.000 0 2 0 2  2.800  2.800   1.29    0.00     0.00    0.00   1    8.00     0    0    0   225   0.0  1   1    7    0   0.000    0.000    0.000  1
 19   1    1  1 3 2    39  16    98   80   80 -3142.00000   1.53455 6.51740e+002     0  6284   0.00  -0.00  -0.00    5.09    8.18  -14.71  3.000  0.000 0 2 0 2  2.800  2.800   1.29    0.00     0.00    0.00   1    8.00     0    0    0   225   0.0  1   1    7    0   0.000    0.000    0.000  1
 19   2    1  1 1 2    40  16    98   80   80 -5272.00000   2.57485 4.89549e-005  -327  1220   0.00  -0.00  -0.00    5.09    8.18  -14.71  3.000  0.000 0 2 0 2  2.800  2.800   3.28    0.00     0.00    0.00   1    8.00     0    0    0   225   0.0  1   1    7    0   0.000    0.000    0.000  1
 19   2    1  1 2 2    41  16    98   80   80 -5272.00000   2.57485 4.89549e-005   157  1021   0.00  -0.00  -0.00    5.09    8.18  -14.71  3.000  0.000 0 2 0 2  2.800  2.800   3.28    0.00     0.00    0.00   1    8.00     0    0    0   225   0.0  1   1    7    0   0.000    0.000    0.000  1
 19   2    1  1 0 2    42  16    98   80   80     0.00000   1.28767 9.78947e-005  1070  1860   0.00  -0.00  -0.00    5.09    8.18  -14.71  3.000  0.000 0 2 0 2  2.800  2.800   3.28    0.00     0.00    0.00   1    8.00     0    0    0   225   0.0  1   1    7    0   0.000    0.000    0.000  1
 19   2    1  1 3 2    43  16    98   80   80 -3142.00000   1.53455 6.51740e+002     0  6284   0.00  -0.00  -0.00    5.09    8.18  -14.71  3.000  0.000 0 2 0 2  2.800  2.800   3.28    0.00     0.00    0.00   1    8.00     0    0    0   225   0.0  1   1    7    0   0.000    0.000    0.000  1
 19   3    1  1 1 2    44  16    98   80   80 -5272.00000   2.57485 4.89549e-005  -107  1602   0.00  -0.00  -0.00    5.09    8.18  -14.71  3.000  0.000 0 2 0 2  2.800  2.800   5.27    0.00     0.00    0.00   1    8.00     0    0    0   225   0.0  1   1    7    0   0.000    0.000    0.000  1
 19   3    1  1 2 2    45  16    98   80   80 -5272.00000   2.57485 4.89549e-005   172  1277   0.00  -0.00  -0.00    5.09    8.18  -14.71  3.000  0.000 0 2 0 2  2.800  2.800   5.27    0.00     0.00    0.00   1    8.00     0    0    0   225   0.0  1   1    7    0   0.000    0.000    0.000  1
 19   3    1  1 0 2    46  16    98   80   80     0.00000   1.28767 9.78947e-005  1070  1860   0.00  -0.00  -0.00    5.09    8.18  -14.71  3.000  0.000 0 2 0 2  2.800  2.800   5.27    0.00     0.00    0.00   1    8.00     0    0    0   225   0.0  1   1    7    0   0.000    0.000    0.000  1
 19   3    1  1 3 2    47  16    98   80   80 -3142.00000   1.53455 6.51740e+002     0  6284   0.00  -0.00  -0.00    5.09    8.18  -14.71  3.000  0.000 0 2 0 2  2.800  2.800   5.27    0.00     0.00    0.00   1    8.00     0    0    0   225   0.0  1   1    7    0   0.000    0.000    0.000  1
 20   1    1  1 1 2    48  16    98   80   80 -5272.00000   2.57485 4.89549e-005  -376  1278   0.00  -0.00  -0.00    5.09    8.18  -17.71  3.000  0.000 0 2 0 2  2.800  2.800   1.29    0.00     0.00    0.00   1    8.00     0    0    0   225   0.0  1   1    7    0   0.000    0.000    0.000  1
 20   1    1  1 2 2    49  16    98   80   80 -5272.00000   2.57485 4.89549e-005    85   810   0.00  -0.00  -0.00    5.09    8.18  -17.71  3.000  0.000 0 2 0 2  2.800  2.800   1.29    0.00     0.00    0.00   1    8.00     0    0    0   225   0.0  1   1    7    0   0.000    0.000    0.000  1
 20   1    1  1 0 2    50  16    98   80   80     0.00000   1.28767 9.78947e-005  1070  1860   0.00  -0.00  -0.00    5.09    8.18  -17.71  3.000  0.000 0 2 0 2  2.800  2.800   1.29    0.00     0.00    0.00   1    8.00     0    0    0   225   0.0  1   1    7    0   0.000    0.000    0.000  1
 20   1    1  1 3 2    51  16    98   80   80 -3142.00000   1.53455 6.51740e+002     0  6284   0.00  -0.00  -0.00    5.09    8.18  -17.71  3.000  0.000 0 2 0 2  2.800  2.800   1.29    0.00     0.00    0.00   1    8.00     0    0    0   225   0.0  1   1    7    0   0.000    0.000    0.000  1
 20   2    1  1 1 2    52  16    98   80   80 -5272.00000   2.57485 4.89549e-005  -337  1141   0.00  -0.00  -0.00    5.09    8.18  -17.71  3.000  0.000 0 2 0 2  2.800  2.800   3.28    0.00     0.00    0.00   1    8.00     0    0    0   225   0.0  1   1    7    0   0.000    0.000    0.000  1
 20   2    1  1 2 2    53  16    98   80   80 -5272.00000   2.57485 4.89549e-005   110  1021   0.00  -0.00  -0.00    5.09    8.18  -17.71  3.000  0.000 0 2 0 2  2.800  2.800   3.28    0.00     0.00    0.00   1    8.00     0    0    0   225   0.0  1   1    7    0   0.000    0.000    0.000  1
 20   2    1  1 0 2    54  16    98   80   80     0.00000   1.28767 9.78947e-005  1070  1860   0.00  -0.00  -0.00    5.09    8.18  -17.71  3.000  0.000 0 2 0 2  2.800  2.800   3.28    0.00     0.00    0.00   1    8.00     0    0    0   225   0.0  1   1    7    0   0.000    0.000    0.000  1
 20   2    1  1 3 2    55  16    98   80   80 -3142.00000   1.53455 6.51740e+002     0  6284   0.00  -0.00  -0.00    5.09    8.18  -17.71  3.000  0.000 0 2 0 2  2.800  2.800   3.28    0.00     0.00    0.00   1    8.00     0    0    0   225   0.0  1   1    7    0   0.000    0.000    0.000  1
 20   3    1  1 1 2    56  16    98   80   80 -5272.00000   2.57485 4.89549e-005   -43  1568   0.00  -0.00  -0.00    5.09    8.18  -17.71  3.000  0.000 0 2 0 2  2.800  2.800   5.27    0.00     0.00    0.00   1    8.00     0    0    0   225   0.0  1   1    7    0   0.000    0.000    0.000  1
 20   3    1  1 2 2    57  16    98   80   80 -5272.00000   2.57485 4.89549e-005   123  1213   0.00  -0.00  -0.00    5.09    8.18  -17.71  3.000  0.000 0 2 0 2  2.800  2.800   5.27    0.00     0.00    0.00   1    8.00     0    0    0   225   0.0  1   1    7    0   0.000    0.000    0.000  1
 20   3    1  1 0 2    58  16    98   80   80     0.00000   1.28767 9.78947e-005  1070  1860   0.00  -0.00  -0.00    5.09    8.18  -17.71  3.000  0.000 0 2 0 2  2.800  2.800   5.27    0.00     0.00    0.00   1    8.00     0    0    0   225   0.0  1   1    7    0   0.000    0.000    0.000  1
 20   3    1  1 3 2    59  16    98   80   80 -3142.00000   1.53455 6.51740e+002     0  6284   0.00  -0.00  -0.00    5.09    8.18  -17.71  3.000  0.000 0 2 0 2  2.800  2.800   5.27    0.00     0.00    0.00   1    8.00     0    0    0   225   0.0  1   1    7    0   0.000    0.000    0.000  1
 21   1    1  1 1 2    60  16    98   80   80 -5272.00000   2.57485 4.89549e-005   472  1014   0.00  -0.00  -0.00    5.09    8.18  -20.71  3.000  0.000 0 2 0 2  2.800  2.800   1.29    0.00     0.00    0.00   1    8.00     0    0    0   225   0.0  1   1    7    0   0.000    0.000    0.000  1
 21   1    1  1 2 2    61  16    98   80   80 -5272.00000   2.57485 4.89549e-005   190   704   0.00  -0.00  -0.00    5.09    8.18  -20.71  3.000  0.000 0 2 0 2  2.800  2.800   1.29    0.00     0.00    0.00   1    8.00     0    0    0   225   0.0  1   1    7    0   0.000    0.000    0.000  1
 21   1    1  1 0 2    62  16    98   80   80     0.00000   1.28767 9.78947e-005  1070  1860   0.00  -0.00  -0.00    5.09    8.18  -20.71  3.000  0.000 0 2 0 2  2.800  2.800   1.29    0.00     0.00    0.00   1    8.00     0    0    0   225   0.0  1   1    7    0   0.000    0.000    0.000  1
 21   1    1  1 3 2    63  16    98   80   80 -3142.00000   1.53455 6.51740e+002     0  6284   0.00  -0.00  -0.00    5.09    8.18  -20.71  3.000  0.000 0 2 0 2  2.800  2.800   1.29    0.00     0.00    0.00   1    8.00     0    0    0   225   0.0  1   1    7    0   0.000    0.000    0.000  1
 21   2    1  1 1 2    64  16    98   80   80 -5272.00000   2.57485 4.89549e-005   400  1246   0.00  -0.00  -0.00    5.09    8.18  -20.71  3.000  0.000 0 2 0 2  2.800  2.800   3.28    0.00     0.00    0.00   1    8.00     0    0    0   225   0.0  1   1    7    0   0.000    0.000    0.000  1
 21   2    1  1 2 2    65  16    98   80   80 -5272.00000   2.57485 4.89549e-005   171  1230   0.00  -0.00  -0.00    5.09    8.18  -20.71  3.000  0.000 0 2 0 2  2.800  2.800   3.28    0.00     0.00    0.00   1    8.00     0    0    0   225   0.0  1   1    7    0   0.000    0.000    0.000  1
 21   2    1  1 0 2    66  16    98   80   80     0.00000   1.28767 9.78947e-005  1070  1860   0.00  -0.00  -0.00    5.09    8.18  -20.71  3.000  0.000 0 2 0 2  2.800  2.800   3.28    0.00     0.00    0.00   1    8.00     0    0    0   225   0.0  1   1    7    0   0.000    0.000    0.000  1
 21   2    1  1 3 2    67  16    98   80   80 -3142.00000   1.53455 6.51740e+002     0  6284   0.00  -0.00  -0.00    5.09    8.18  -20.71  3.000  0.000 0 2 0 2  2.800  2.800   3.28    0.00     0.00    0.00   1    8.00     0    0    0   225   0.0  1   1    7    0   0.000    0.000    0.000  1
 21   3    1  1 1 2    68  16    98   80   80 -5272.00000   2.57485 4.89549e-005   249  1515   0.00  -0.00  -0.00    5.09    8.18  -20.71  3.000  0.000 0 2 0 2  2.800  2.800   5.27    0.00     0.00    0.00   1    8.00     0    0    0   225   0.0  1   1    7    0   0.000    0.000    0.000  1
 21   3    1  1 2 2    69  16    98   80   80 -5272.00000   2.57485 4.89549e-005   110  1626   0.00  -0.00  -0.00    5.09    8.18  -20.71  3.000  0.000 0 2 0 2  2.800  2.800   5.27    0.00     0.00    0.00   1    8.00     0    0    0   225   0.0  1   1    7    0   0.000    0.000    0.000  1
 21   3    1  1 0 2    70  16    98   80   80     0.00000   1.28767 9.78947e-005  1070  1860   0.00  -0.00  -0.00    5.09    8.18  -20.71  3.000  0.000 0 2 0 2  2.800  2.800   5.27    0.00     0.00    0.00   1    8.00     0    0    0   225   0.0  1   1    7    0   0.000    0.000    0.000  1
 21   3    1  1 3 2    71  16    98   80   80 -3142.00000   1.53455 6.51740e+002     0  6284   0.00  -0.00  -0.00    5.09    8.18  -20.71  3.000  0.000 0 2 0 2  2.800  2.800   5.27    0.00     0.00    0.00   1    8.00     0    0    0   225   0.0  1   1    7    0   0.000    0.000    0.000  1
 22   1    1  1 1 2    72  16    98   80   80 -5272.00000   2.57485 4.89549e-005   571  1248   0.00  -0.00  -0.00    5.09    8.18  -23.71  3.000  0.000 0 2 0 2  2.800  2.800   1.29    0.00     0.00    0.00   1    8.00     0    0    0   225   0.0  1   1    7    0   0.000    0.000    0.000  1
 22   1    1  1 2 2    73  16    98   80   80 -5272.00000   2.57485 4.89549e-005   211   747   0.00  -0.00  -0.00    5.09    8.18  -23.71  3.000  0.000 0 2 0 2  2.800  2.800   1.29    0.00     0.00    0.00   1    8.00     0    0    0   225   0.0  1   1    7    0   0.000    0.000    0.000  1
 22   1    1  1 0 2    74  16    98   80   80     0.00000   1.28767 9.78947e-005  1070  1860   0.00  -0.00  -0.00    5.09    8.18  -23.71  3.000  0.000 0 2 0 2  2.800  2.800   1.29    0.00     0.00    0.00   1    8.00     0    0    0   225   0.0  1   1    7    0   0.000    0.000    0.000  1
 22   1    1  1 3 2    75  16    98   80   80 -3142.00000   1.53455 6.51740e+002     0  6284   0.00  -0.00  -0.00    5.09    8.18  -23.71  3.000  0.000 0 2 0 2  2.800  2.800   1.29    0.00     0.00    0.00   1    8.00     0    0    0   225   0.0  1   1    7    0   0.000    0.000    0.000  1
 22   2    1  1 1 2    76  16    98   80   80 -5272.00000   2.57485 4.89549e-005   446  1342   0.00  -0.00  -0.00    5.09    8.18  -23.71  3.000  0.000 0 2 0 2  2.800  2.800   3.28    0.00     0.00    0.00   1    8.00     0    0    0   225   0.0  1   1    7    0   0.000    0.000    0.000  1
 22   2    1  1 2 2    77  16    98   80   80 -5272.00000   2.57485 4.89549e-005   193  1327   0.00  -0.00  -0.00    5.09    8.18  -23.71  3.000  0.000 0 2 0 2  2.800  2.800   3.28    0.00     0.00    0.00   1    8.00     0    0    0   225   0.0  1   1    7    0   0.000    0.000    0.000  1
 22   2    1  1 0 2    78  16    98   80   80     0.00000   1.28767 9.78947e-005  1070  1860   0.00  -0.00  -0.00    5.09    8.18  -23.71  3.000  0.000 0 2 0 2  2.800  2.800   3.28    0.00     0.00    0.00   1    8.00     0    0    0   225   0.0  1   1    7    0   0.000    0.000    0.000  1
 22   2    1  1 3 2    79  16    98   80   80 -3142.00000   1.53455 6.51740e+002     0  6284   0.00  -0.00  -0.00    5.09    8.18  -23.71  3.000  0.000 0 2 0 2  2.800  2.800   3.28    0.00     0.00    0.00   1    8.00     0    0    0   225   0.0  1   1    7    0   0.000    0.000    0.000  1
 22   3    1  1 1 2    80  16    98   80   80 -5272.00000   2.57485 4.89549e-005   272  1590   0.00  -0.00  -0.00    5.09    8.18  -23.71  3.000  0.000 0 2 0 2  2.800  2.800   5.27    0.00     0.00    0.00   1    8.00     0    0    0   225   0.0  1   1    7    0   0.000    0.000    0.000  1
 22   3    1  1 2 2    81  16    98   80   80 -5272.00000   2.57485 4.89549e-005   112  1726   0.00  -0.00  -0.00    5.09    8.18  -23.71  3.000  0.000 0 2 0 2  2.800  2.800   5.27    0.00     0.00    0.00   1    8.00     0    0    0   225   0.0  1   1    7    0   0.000    0.000    0.000  1
 22   3    1  1 0 2    82  16    98   80   80     0.00000   1.28767 9.78947e-005  1070  1860   0.00  -0.00  -0.00    5.09    8.18  -23.71  3.000  0.000 0 2 0 2  2.800  2.800   5.27    0.00     0.00    0.00   1    8.00     0    0    0   225   0.0  1   1    7    0   0.000    0.000    0.000  1
 22   3    1  1 3 2    83  16    98   80   80 -3142.00000   1.53455 6.51740e+002     0  6284   0.00  -0.00  -0.00    5.09    8.18  -23.71  3.000  0.000 0 2 0 2  2.800  2.800   5.27    0.00     0.00    0.00   1    8.00     0    0    0   225   0.0  1   1    7    0   0.000    0.000    0.000  1
