# === DATA DESCRIPTION FILE ======================================================
#
# CAUTION - Investigational device.
# Limited by Federal Law to investigational use.
#
# Dataset name: E:\\Export\\T1_dual_echo.PAR
#
# CLINICAL TRYOUT             Research image export tool     V4.2
#
# === GENERAL INFORMATION ========================================================
#
.    Patient name                       :   anon
.    Examination name                   :   anon
.    Protocol name                      :   anon
.    Examination date/time              :   anon
.    Series Type                        :   Image   MRSERIES
.    Acquisition nr                     :   5
.    Reconstruction nr                  :   1
.    Scan Duration [sec]                :   200
.    Max. number of cardiac phases      :   1
.    Max. number of echoes              :   2
.    Max. number of slices/locations    :   180
.    Max. number of dynamics            :   1
.    Max. number of mixes               :   1
.    Patient position                   :   Head First Supine
.    Preparation direction              :   Anterior-Posterior
.    Technique                          :   T1TFE
.    Scan resolution  (x, y)            :   256  256
.    Scan mode                          :   3D
.    Repetition time [ms]               :   8.133
.    FOV (ap,fh,rl) [mm]                :   224.000  256.000  180.000
.    Water Fat shift [pixels]           :   0.854
.    Angulation midslice(ap,fh,rl)[degr]:   0.000  0.000  0.000
.    Off Centre midslice(ap,fh,rl) [mm] :   -5.055  12.640  -2.405
.    Flow compensation <0=no 1=yes> ?   :   0
.    Presaturation     <0=no 1=yes> ?   :   0
.    Phase encoding velocity [cm/sec]   :   0.000000  0.000000  0.000000
.    MTC               <0=no 1=yes> ?   :   0
.    SPIR              <0=no 1=yes> ?   :   0
.    EPI factor        <0,1=no EPI>     :   1
.    Dynamic scan      <0=no 1=yes> ?   :   0
.    Diffusion         <0=no 1=yes> ?   :   0
.    Diffusion echo time [ms]           :   0.0000
.    Max. number of diffusion values    :   1
.    Max. number of gradient orients    :   1
.    Number of label types   <0=no ASL> :   0
#
# === PIXEL VALUES =============================================================
#  PV = pixel value in REC file, FP = floating point value, DV = displayed value on console
#  RS = rescale slope,           RI = rescale intercept,    SS = scale slope
#  DV = PV * RS + RI             FP = DV / (RS * SS)
#
# === IMAGE INFORMATION DEFINITION =============================================
#  The rest of this file contains ONE line per image, this line contains the following information:
#
#  slice number                             (integer)
#  echo number                              (integer)
#  dynamic scan number                      (integer)
#  cardiac phase number                     (integer)
#  image_type_mr                            (integer)
#  scanning sequence                        (integer)
#  index in REC file (in images)            (integer)
#  image pixel size (in bits)               (integer)
#  scan percentage                          (integer)
#  recon resolution (x y)                   (2*integer)
#  rescale intercept                        (float)
#  rescale slope                            (float)
#  scale slope                              (float)
#  window center                            (integer)
#  window width                             (integer)
#  image angulation (ap,fh,rl in degrees )  (3*float)
#  image offcentre (ap,fh,rl in mm )        (3*float)
#  slice thickness (in mm )                 (float)
#  slice gap (in mm )                       (float)
#  image_display_orientation                (integer)
#  slice orientation ( TRA/SAG/COR )        (integer)
#  fmri_status_indication                   (integer)
#  image_type_ed_es  (end diast/end syst)   (integer)
#  pixel spacing (x,y) (in mm)              (2*float)
#  echo_time                                (float)
#  dyn_scan_begin_time                      (float)
#  trigger_time                             (float)
#  diffusion_b_factor                       (float)
#  number of averages                       (integer)
#  image_flip_angle (in degrees)            (float)
#  cardiac frequency   (bpm)                (integer)
#  minimum RR-interval (in ms)              (integer)
#  maximum RR-interval (in ms)              (integer)
#  TURBO factor  <0=no turbo>               (integer)
#  Inversion delay (in ms)                  (float)
#  diffusion b value number    (imagekey!)  (integer)
#  gradient orientation number (imagekey!)  (integer)
#  contrast type                            (string)
#  diffusion anisotropy type                (string)
#  diffusion (ap, fh, rl)                   (3*float)
#  label type (ASL)            (imagekey!)  (integer)
#
# === IMAGE INFORMATION ==========================================================
#  sl ec  dyn ph ty    idx pix scan% rec size                (re)scale              window        angulation              offcentre        thick   gap   info      spacing     echo     dtime   ttime    diff  avg  flip    freq   RR-int  turbo delay b grad cont anis         diffusion       L.ty

 54   1    1  1 0 2     0  16   100  256  256     0.00000   9.97143 3.65651e-003  1070  1860   0.00  -0.00  -0.00   -5.06   12.64   34.10  1.000  0.000 0 2 0 2  1.000  1.000   2.30    0.00     0.00    0.00   1    8.00     0    0    0   448   0.0  1   1    7    0   0.000    0.000    0.000  1
 91   1    1  1 0 2     1  16   100  256  256     0.00000   9.97143 3.65651e-003  1070  1860   0.00  -0.00  -0.00   -5.06   12.64   -2.90  1.000  0.000 0 2 0 2  1.000  1.000   2.30    0.00     0.00    0.00   1    8.00     0    0    0   448   0.0  1   1    7    0   0.000    0.000    0.000  1
 90   1    1  1 0 2     2  16   100  256  256     0.00000   9.97143 3.65651e-003  1070  1860   0.00  -0.00  -0.00   -5.06   12.64   -1.90  1.000  0.000 0 2 0 2  1.000  1.000   2.30    0.00     0.00    0.00   1    8.00     0    0    0   448   0.0  1   1    7    0   0.000    0.000    0.000  1
 89   1    1  1 0 2     3  16   100  256  256     0.00000   9.97143 3.65651e-003  1070  1860   0.00  -0.00  -0.00   -5.06   12.64   -0.90  1.000  0.000 0 2 0 2  1.000  1.000   2.30    0.00     0.00    0.00   1    8.00     0    0    0   448   0.0  1   1    7    0   0.000    0.000    0.000  1
 92   1    1  1 0 2     4  16   100  256  256     0.00000   9.97143 3.65651e-003  1070  1860   0.00  -0.00  -0.00   -5.06   12.64   -3.90  1.000  0.000 0 2 0 2  1.000  1.000   2.30    0.00     0.00    0.00   1    8.00     0    0    0   448   0.0  1   1    7    0   0.000    0.000    0.000  1
  4   2    1  1 0 2     5  16   100  256  256     0.00000   9.97143 3.65651e-003  1070  1860   0.00  -0.00  -0.00   -5.06   12.64   84.10  1.000  0.000 0 2 0 2  1.000  1.000   5.76    0.00     0.00    0.00   1    8.00     0    0    0   448   0.0  1   1    7    0   0.000    0.000    0.000  1
 55   1    1  1 0 2     6  16   100  256  256     0.00000   9.97143 3.65651e-003  1070  1860   0.00  -0.00  -0.00   -5.06   12.64   33.10  1.000  0.000 0 2 0 2  1.000  1.000   2.30    0.00     0.00    0.00   1    8.00     0    0    0   448   0.0  1   1    7    0   0.000    0.000    0.000  1
175   2    1  1 0 2     7  16   100  256  256     0.00000   9.97143 3.65651e-003  1070  1860   0.00  -0.00  -0.00   -5.06   12.64  -86.90  1.000  0.000 0 2 0 2  1.000  1.000   5.76    0.00     0.00    0.00   1    8.00     0    0    0   448   0.0  1   1    7    0   0.000    0.000    0.000  1
174   2    1  1 0 2     8  16   100  256  256     0.00000   9.97143 3.65651e-003  1070  1860   0.00  -0.00  -0.00   -5.06   12.64  -85.90  1.000  0.000 0 2 0 2  1.000  1.000   5.76    0.00     0.00    0.00   1    8.00     0    0    0   448   0.0  1   1    7    0   0.000    0.000    0.000  1
173   2    1  1 0 2     9  16   100  256  256     0.00000   9.97143 3.65651e-003  1070  1860   0.00  -0.00  -0.00   -5.06   12.64  -84.90  1.000  0.000 0 2 0 2  1.000  1.000   5.76    0.00     0.00    0.00   1    8.00     0    0    0   448   0.0  1   1    7    0   0.000    0.000    0.000  1
 88   1    1  1 0 2    10  16   100  256  256     0.00000   9.97143 3.65651e-003  1070  1860   0.00  -0.00  -0.00   -5.06   12.64    0.10  1.000  0.000 0 2 0 2  1.000  1.000   2.30    0.00     0.00    0.00   1    8.00     0    0    0   448   0.0  1   1    7    0   0.000    0.000    0.000  1
 56   1    1  1 0 2    11  16   100  256  256     0.00000   9.97143 3.65651e-003  1070  1860   0.00  -0.00  -0.00   -5.06   12.64   32.10  1.000  0.000 0 2 0 2  1.000  1.000   2.30    0.00     0.00    0.00   1    8.00     0    0    0   448   0.0  1   1    7    0   0.000    0.000    0.000  1
  5   2    1  1 0 2    12  16   100  256  256     0.00000   9.97143 3.65651e-003  1070  1860   0.00  -0.00  -0.00   -5.06   12.64   83.10  1.000  0.000 0 2 0 2  1.000  1.000   5.76    0.00     0.00    0.00   1    8.00     0    0    0   448   0.0  1   1    7    0   0.000    0.000    0.000  1
 94   1    1  1 0 2    13  16   100  256  256     0.00000   9.97143 3.65651e-003  1070  1860   0.00  -0.00  -0.00   -5.06   12.64   -5.90  1.000  0.000 0 2 0 2  1.000  1.000   2.30    0.00     0.00    0.00   1    8.00     0    0    0   448   0.0  1   1    7    0   0.000    0.000    0.000  1
172   2    1  1 0 2    14  16   100  256  256     0.00000   9.97143 3.65651e-003  1070  1860   0.00  -0.00  -0.00   -5.06   12.64  -83.90  1.000  0.000 0 2 0 2  1.000  1.000   5.76    0.00     0.00    0.00   1    8.00     0    0    0   448   0.0  1   1    7    0   0.000    0.000    0.000  1
  1   1    1  1 0 2    15  16   100  256  256     0.00000   9.97143 3.65651e-003  1070  1860   0.00  -0.00  -0.00   -5.06   12.64   87.10  1.000  0.000 0 2 0 2  1.000  1.000   2.30    0.00     0.00    0.00   1    8.00     0    0    0   448   0.0  1   1    7    0   0.000    0.000    0.000  1
 57   1    1  1 0 2    16  16   100  256  256     0.00000   9.97143 3.65651e-003  1070  1860   0.00  -0.00  -0.00   -5.06   12.64   31.10  1.000  0.000 0 2 0 2  1.000  1.000   2.30    0.00     0.00    0.00   1    8.00     0    0    0   448   0.0  1   1    7    0   0.000    0.000    0.000  1
 87   1    1  1 0 2    17  16   100  256  256     0.00000   9.97143 3.65651e-003  1070  1860   0.00  -0.00  -0.00   -5.06   12.64    1.10  1.000  0.000 0 2 0 2  1.000  1.000   2.30    0.00     0.00    0.00   1    8.00     0    0    0   448   0.0  1   1    7    0   0.000    0.000    0.000  1
 53   1    1  1 0 2    18  16   100  256  256     0.00000   9.97143 3.65651e-003  1070  1860   0.00  -0.00  -0.00   -5.06   12.64   35.10  1.000  0.000 0 2 0 2  1.000  1.000   2.30    0.00     0.00    0.00   1    8.00     0    0    0   448   0.0  1   1    7    0   0.000    0.000    0.000  1
 86   1    1  1 0 2    19  16   100  256  256     0.00000   9.97143 3.65651e-003  1070  1860   0.00  -0.00  -0.00   -5.06   12.64    2.10  1.000  0.000 0 2 0 2  1.000  1.000   2.30    0.00     0.00    0.00   1    8.00     0    0    0   448   0.0  1   1    7    0   0.000    0.000    0.000  1
  6   2    1  1 0 2    20  16   100  256  256     0.00000   9.97143 3.65651e-003  1070  1860   0.00  -0.00  -0.00   -5.06   12.64   82.10  1.000  0.000 0 2 0 2  1.000  1.000   5.76    0.00     0.00    0.00   1    8.00     0    0    0   448   0.0  1   1    7    0   0.000    0.000    0.000  1
  2   1    1  1 0 2    21  16   100  256  256     0.00000   9.97143 3.65651e-003  1070  1860   0.00  -0.00  -0.00   -5.06   12.64   86.10  1.000  0.000 0 2 0 2  1.000  1.000   2.30    0.00     0.00    0.00   1    8.00     0    0    0   448   0.0  1   1    7    0   0.000    0.000    0.000  1
  3   2    1  1 0 2    22  16   100  256  256     0.00000   9.97143 3.65651e-003  1070  1860   0.00  -0.00  -0.00   -5.06   12.64   85.10  1.000  0.000 0 2 0 2  1.000  1.000   5.76    0.00     0.00    0.00   1    8.00     0    0    0   448   0.0  1   1    7    0   0.000    0.000    0.000  1
171   2    1  1 0 2    23  16   100  256  256     0.00000   9.97143 3.65651e-003  1070  1860   0.00  -0.00  -0.00   -5.06   12.64  -82.90  1.000  0.000 0 2 0 2  1.000  1.000   5.76    0.00     0.00    0.00   1    8.00     0    0    0   448   0.0  1   1    7    0   0.000    0.000    0.000  1
 58   1    1  1 0 2    24  16   100  256  256     0.00000   9.97143 3.65651e-003  1070  1860   0.00  -0.00  -0.00   -5.06   12.64   30.10  1.000  0.000 0 2 0 2  1.000  1.000   2.30    0.00     0.00    0.00   1    8.00     0    0    0   448   0.0  1   1    7    0   0.000    0.000    0.000  1
  3   1    1  1 0 2    25  16   100  256  256     0.00000   9.97143 3.65651e-003  1070  1860   0.00  -0.00  -0.00   -5.06   12.64   85.10  1.000  0.000 0 2 0 2  1.000  1.000   2.30    0.00     0.00    0.00   1    8.00     0    0    0   448   0.0  1   1    7    0   0.000    0.000    0.000  1
177   2    1  1 0 2    26  16   100  256  256     0.00000   9.97143 3.65651e-003  1070  1860   0.00  -0.00  -0.00   -5.06   12.64  -88.90  1.000  0.000 0 2 0 2  1.000  1.000   5.76    0.00     0.00    0.00   1    8.00     0    0    0   448   0.0  1   1    7    0   0.000    0.000    0.000  1
  7   2    1  1 0 2    27  16   100  256  256     0.00000   9.97143 3.65651e-003  1070  1860   0.00  -0.00  -0.00   -5.06   12.64   81.10  1.000  0.000 0 2 0 2  1.000  1.000   5.76    0.00     0.00    0.00   1    8.00     0    0    0   448   0.0  1   1    7    0   0.000    0.000    0.000  1
170   2    1  1 0 2    28  16   100  256  256     0.00000   9.97143 3.65651e-003  1070  1860   0.00  -0.00  -0.00   -5.06   12.64  -81.90  1.000  0.000 0 2 0 2  1.000  1.000   5.76    0.00     0.00    0.00   1    8.00     0    0    0   448   0.0  1   1    7    0   0.000    0.000    0.000  1
  4   1    1  1 0 2    29  16   100  256  256     0.00000   9.97143 3.65651e-003  1070  1860   0.00  -0.00  -0.00   -5.06   12.64   84.10  1.000  0.000 0 2 0 2  1.000  1.000   2.30    0.00     0.00    0.00   1    8.00     0    0    0   448   0.0  1   1    7    0   0.000    0.000    0.000  1
 59   1    1  1 0 2    30  16   100  256  256     0.00000   9.97143 3.65651e-003  1070  1860   0.00  -0.00  -0.00   -5.06   12.64   29.10  1.000  0.000 0 2 0 2  1.000  1.000   2.30    0.00     0.00    0.00   1    8.00     0    0    0   448   0.0  1   1    7    0   0.000    0.000    0.000  1
  5   1    1  1 0 2    31  16   100  256  256     0.00000   9.97143 3.65651e-003  1070  1860   0.00  -0.00  -0.00   -5.06   12.64   83.10  1.000  0.000 0 2 0 2  1.000  1.000   2.30    0.00     0.00    0.00   1    8.00     0    0    0   448   0.0  1   1    7    0   0.000    0.000    0.000  1
 93   1    1  1 0 2    32  16   100  256  256     0.00000   9.97143 3.65651e-003  1070  1860   0.00  -0.00  -0.00   -5.06   12.64   -4.90  1.000  0.000 0 2 0 2  1.000  1.000   2.30    0.00     0.00    0.00   1    8.00     0    0    0   448   0.0  1   1    7    0   0.000    0.000    0.000  1
  6   1    1  1 0 2    33  16   100  256  256     0.00000   9.97143 3.65651e-003  1070  1860   0.00  -0.00  -0.00   -5.06   12.64   82.10  1.000  0.000 0 2 0 2  1.000  1.000   2.30    0.00     0.00    0.00   1    8.00     0    0    0   448   0.0  1   1    7    0   0.000    0.000    0.000  1
  8   2    1  1 0 2    34  16   100  256  256     0.00000   9.97143 3.65651e-003  1070  1860   0.00  -0.00  -0.00   -5.06   12.64   80.10  1.000  0.000 0 2 0 2  1.000  1.000   5.76    0.00     0.00    0.00   1    8.00     0    0    0   448   0.0  1   1    7    0   0.000    0.000    0.000  1
  7   1    1  1 0 2    35  16   100  256  256     0.00000   9.97143 3.65651e-003  1070  1860   0.00  -0.00  -0.00   -5.06   12.64   81.10  1.000  0.000 0 2 0 2  1.000  1.000   2.30    0.00     0.00    0.00   1    8.00     0    0    0   448   0.0  1   1    7    0   0.000    0.000    0.000  1
176   2    1  1 0 2    36  16   100  256  256     0.00000   9.97143 3.65651e-003  1070  1860   0.00  -0.00  -0.00   -5.06   12.64  -87.90  1.000  0.000 0 2 0 2  1.000  1.000   5.76    0.00     0.00    0.00   1    8.00     0    0    0   448   0.0  1   1    7    0   0.000    0.000    0.000  1
 85   1    1  1 0 2    37  16   100  256  256     0.00000   9.97143 3.65651e-003  1070  1860   0.00  -0.00  -0.00   -5.06   12.64    3.10  1.000  0.000 0 2 0 2  1.000  1.000   2.30    0.00     0.00    0.00   1    8.00     0    0    0   448   0.0  1   1    7    0   0.000    0.000    0.000  1
 60   1    1  1 0 2    38  16   100  256  256     0.00000   9.97143 3.65651e-003  1070  1860   0.00  -0.00  -0.00   -5.06   12.64   28.10  1.000  0.000 0 2 0 2  1.000  1.000   2.30    0.00     0.00    0.00   1    8.00     0    0    0   448   0.0  1   1    7    0   0.000    0.000    0.000  1
  9   2    1  1 0 2    39  16   100  256  256     0.00000   9.97143 3.65651e-003  1070  1860   0.00  -0.00  -0.00   -5.06   12.64   79.10  1.000  0.000 0 2 0 2  1.000  1.000   5.76    0.00     0.00    0.00   1    8.00     0    0    0   448   0.0  1   1    7    0   0.000    0.000    0.000  1
  8   1    1  1 0 2    40  16   100  256  256     0.00000   9.97143 3.65651e-003  1070  1860   0.00  -0.00  -0.00   -5.06   12.64   80.10  1.000  0.000 0 2 0 2  1.000  1.000   2.30    0.00     0.00    0.00   1    8.00     0    0    0   448   0.0  1   1    7    0   0.000    0.000    0.000  1
 84   1    1  1 0 2    41  16   100  256  256     0.00000   9.97143 3.65651e-003  1070  1860   0.00  -0.00  -0.00   -5.06   12.64    4.10  1.000  0.000 0 2 0 2  1.000  1.000   2.30    0.00     0.00    0.00   1    8.00     0    0    0   448   0.0  1   1    7    0   0.000    0.000    0.000  1
179   2    1  1 0 2    42  16   100  256  256     0.00000   9.97143 3.65651e-003  1070  1860   0.00  -0.00  -0.00   -5.06   12.64  -90.90  1.000  0.000 0 2 0 2  1.000  1.000   5.76    0.00     0.00    0.00   1    8.00     0    0    0   448   0.0  1   1    7    0   0.000    0.000    0.000  1
 61   1    1  1 0 2    43  16   100  256  256     0.00000   9.97143 3.65651e-003  1070  1860   0.00  -0.00  -0.00   -5.06   12.64   27.10  1.000  0.000 0 2 0 2  1.000  1.000   2.30    0.00     0.00    0.00   1    8.00     0    0    0   448   0.0  1   1    7    0   0.000    0.000    0.000  1
 83   1    1  1 0 2    44  16   100  256  256     0.00000   9.97143 3.65651e-003  1070  1860   0.00  -0.00  -0.00   -5.06   12.64    5.10  1.000  0.000 0 2 0 2  1.000  1.000   2.30    0.00     0.00    0.00   1    8.00     0    0    0   448   0.0  1   1    7    0   0.000    0.000    0.000  1
  9   1    1  1 0 2    45  16   100  256  256     0.00000   9.97143 3.65651e-003  1070  1860   0.00  -0.00  -0.00   -5.06   12.64   79.10  1.000  0.000 0 2 0 2  1.000  1.000   2.30    0.00     0.00    0.00   1    8.00     0    0    0   448   0.0  1   1    7    0   0.000    0.000    0.000  1
178   2    1  1 0 2    46  16   100  256  256     0.00000   9.97143 3.65651e-003  1070  1860   0.00  -0.00  -0.00   -5.06   12.64  -89.90  1.000  0.000 0 2 0 2  1.000  1.000   5.76    0.00     0.00    0.00   1    8.00     0    0    0   448   0.0  1   1    7    0   0.000    0.000    0.000  1
 82   1    1  1 0 2    47  16   100  256  256     0.00000   9.97143 3.65651e-003  1070  1860   0.00  -0.00  -0.00   -5.06   12.64    6.10  1.000  0.000 0 2 0 2  1.000  1.000   2.30    0.00     0.00    0.00   1    8.00     0    0    0   448   0.0  1   1    7    0   0.000    0.000    0.000  1
 10   2    1  1 0 2    48  16   100  256  256     0.00000   9.97143 3.65651e-003  1070  1860   0.00  -0.00  -0.00   -5.06   12.64   78.10  1.000  0.000 0 2 0 2  1.000  1.000   5.76    0.00     0.00    0.00   1    8.00     0    0    0   448   0.0  1   1    7    0   0.000    0.000    0.000  1
 10   1    1  1 0 2    49  16   100  256  256     0.00000   9.97143 3.65651e-003  1070  1860   0.00  -0.00  -0.00   -5.06   12.64   78.10  1.000  0.000 0 2 0 2  1.000  1.000   2.30    0.00     0.00    0.00   1    8.00     0    0    0   448   0.0  1   1    7    0   0.000    0.000    0.000  1
 81   1    1  1 0 2    50  16   100  256  256     0.00000   9.97143 3.65651e-003  1070  1860   0.00  -0.00  -0.00   -5.06   12.64    7.10  1.000  0.000 0 2 0 2  1.000  1.000   2.30    0.00     0.00    0.00   1    8.00     0    0    0   448   0.0  1   1    7    0   0.000    0.000    0.000  1
 95   1    1  1 0 2    51  16   100  256  256     0.00000   9.97143 3.65651e-003  1070  1860   0.00  -0.00  -0.00   -5.06   12.64   -6.90  1.000  0.000 0 2 0 2  1.000  1.000   2.30    0.00     0.00    0.00   1    8.00     0    0    0   448   0.0  1   1    7    0   0.000    0.000    0.000  1
 11   1    1  1 0 2    52  16   100  256  256     0.00000   9.97143 3.65651e-003  1070  1860   0.00  -0.00  -0.00   -5.06   12.64   77.10  1.000  0.000 0 2 0 2  1.000  1.000   2.30    0.00     0.00    0.00   1    8.00     0    0    0   448   0.0  1   1    7    0   0.000    0.000    0.000  1
 62   1    1  1 0 2    53  16   100  256  256     0.00000   9.97143 3.65651e-003  1070  1860   0.00  -0.00  -0.00   -5.06   12.64   26.10  1.000  0.000 0 2 0 2  1.000  1.000   2.30    0.00     0.00    0.00   1    8.00     0    0    0   448   0.0  1   1    7    0   0.000    0.000    0.000  1
 11   2    1  1 0 2    54  16   100  256  256     0.00000   9.97143 3.65651e-003  1070  1860   0.00  -0.00  -0.00   -5.06   12.64   77.10  1.000  0.000 0 2 0 2  1.000  1.000   5.76    0.00     0.00    0.00   1    8.00     0    0    0   448   0.0  1   1    7    0   0.000    0.000    0.000  1
  2   2    1  1 0 2    55  16   100  256  256     0.00000   9.97143 3.65651e-003  1070  1860   0.00  -0.00  -0.00   -5.06   12.64   86.10  1.000  0.000 0 2 0 2  1.000  1.000   5.76    0.00     0.00    0.00   1    8.00     0    0    0   448   0.0  1   1    7    0   0.000    0.000    0.000  1
 13   1    1  1 0 2    56  16   100  256  256     0.00000   9.97143 3.65651e-003  1070  1860   0.00  -0.00  -0.00   -5.06   12.64   75.10  1.000  0.000 0 2 0 2  1.000  1.000   2.30    0.00     0.00    0.00   1    8.00     0    0    0   448   0.0  1   1    7    0   0.000    0.000    0.000  1
 12   1    1  1 0 2    57  16   100  256  256     0.00000   9.97143 3.65651e-003  1070  1860   0.00  -0.00  -0.00   -5.06   12.64   76.10  1.000  0.000 0 2 0 2  1.000  1.000   2.30    0.00     0.00    0.00   1    8.00     0    0    0   448   0.0  1   1    7    0   0.000    0.000    0.000  1
169   2    1  1 0 2    58  16   100  256  256     0.00000   9.97143 3.65651e-003  1070  1860   0.00  -0.00  -0.00   -5.06   12.64  -80.90  1.000  0.000 0 2 0 2  1.000  1.000   5.76    0.00     0.00    0.00   1    8.00     0    0    0   448   0.0  1   1    7    0   0.000    0.000    0.000  1
 12   2    1  1 0 2    59  16   100  256  256     0.00000   9.97143 3.65651e-003  1070  1860   0.00  -0.00  -0.00   -5.06   12.64   76.10  1.000  0.000 0 2 0 2  1.000  1.000   5.76    0.00     0.00    0.00   1    8.00     0    0    0   448   0.0  1   1    7    0   0.000    0.000    0.000  1
 63   1    1  1 0 2    60  16   100  256  256     0.00000   9.97143 3.65651e-003  1070  1860   0.00  -0.00  -0.00   -5.06   12.64   25.10  1.000  0.000 0 2 0 2  1.000  1.000   2.30    0.00     0.00    0.00   1    8.00     0    0    0   448   0.0  1   1    7    0   0.000    0.000    0.000  1
180   2    1  1 0 2    61  16   100  256  256     0.00000   9.97143 3.65651e-003  1070  1860   0.00  -0.00  -0.00   -5.06   12.64  -91.90  1.000  0.000 0 2 0 2  1.000  1.000   5.76    0.00     0.00    0.00   1    8.00     0    0    0   448   0.0  1   1    7    0   0.000    0.000    0.000  1
 14   1    1  1 0 2    62  16   100  256  256     0.00000   9.97143 3.65651e-003  1070  1860   0.00  -0.00  -0.00   -5.06   12.64   74.10  1.000  0.000 0 2 0 2  1.000  1.000   2.30    0.00     0.00    0.00   1    8.00     0    0    0   448   0.0  1   1    7    0   0.000    0.000    0.000  1
168   2    1  1 0 2    63  16   100  256  256     0.00000   9.97143 3.65651e-003  1070  1860   0.00  -0.00  -0.00   -5.06   12.64  -79.90  1.000  0.000 0 2 0 2  1.000  1.000   5.76    0.00     0.00    0.00   1    8.00     0    0    0   448   0.0  1   1    7    0   0.000    0.000    0.000  1
 80   1    1  1 0 2    64  16   100  256  256     0.00000   9.97143 3.65651e-003  1070  1860   0.00  -0.00  -0.00   -5.06   12.64    8.10  1.000  0.000 0 2 0 2  1.000  1.000   2.30    0.00     0.00    0.00   1    8.00     0    0    0   448   0.0  1   1    7    0   0.000    0.000    0.000  1
 52   1    1  1 0 2    65  16   100  256  256     0.00000   9.97143 3.65651e-003  1070  1860   0.00  -0.00  -0.00   -5.06   12.64   36.10  1.000  0.000 0 2 0 2  1.000  1.000   2.30    0.00     0.00    0.00   1    8.00     0    0    0   448   0.0  1   1    7    0   0.000    0.000    0.000  1
 13   2    1  1 0 2    66  16   100  256  256     0.00000   9.97143 3.65651e-003  1070  1860   0.00  -0.00  -0.00   -5.06   12.64   75.10  1.000  0.000 0 2 0 2  1.000  1.000   5.76    0.00     0.00    0.00   1    8.00     0    0    0   448   0.0  1   1    7    0   0.000    0.000    0.000  1
 64   1    1  1 0 2    67  16   100  256  256     0.00000   9.97143 3.65651e-003  1070  1860   0.00  -0.00  -0.00   -5.06   12.64   24.10  1.000  0.000 0 2 0 2  1.000  1.000   2.30    0.00     0.00    0.00   1    8.00     0    0    0   448   0.0  1   1    7    0   0.000    0.000    0.000  1
 79   1    1  1 0 2    68  16   100  256  256     0.00000   9.97143 3.65651e-003  1070  1860   0.00  -0.00  -0.00   -5.06   12.64    9.10  1.000  0.000 0 2 0 2  1.000  1.000   2.30    0.00     0.00    0.00   1    8.00     0    0    0   448   0.0  1   1    7    0   0.000    0.000    0.000  1
 15   1    1  1 0 2    69  16   100  256  256     0.00000   9.97143 3.65651e-003  1070  1860   0.00  -0.00  -0.00   -5.06   12.64   73.10  1.000  0.000 0 2 0 2  1.000  1.000   2.30    0.00     0.00    0.00   1    8.00     0    0    0   448   0.0  1   1    7    0   0.000    0.000    0.000  1
  1   2    1  1 0 2    70  16   100  256  256     0.00000   9.97143 3.65651e-003  1070  1860   0.00  -0.00  -0.00   -5.06   12.64   87.10  1.000  0.000 0 2 0 2  1.000  1.000   5.76    0.00     0.00    0.00   1    8.00     0    0    0   448   0.0  1   1    7    0   0.000    0.000    0.000  1
167   2    1  1 0 2    71  16   100  256  256     0.00000   9.97143 3.65651e-003  1070  1860   0.00  -0.00  -0.00   -5.06   12.64  -78.90  1.000  0.000 0 2 0 2  1.000  1.000   5.76    0.00     0.00    0.00   1    8.00     0    0    0   448   0.0  1   1    7    0   0.000    0.000    0.000  1
 14   2    1  1 0 2    72  16   100  256  256     0.00000   9.97143 3.65651e-003  1070  1860   0.00  -0.00  -0.00   -5.06   12.64   74.10  1.000  0.000 0 2 0 2  1.000  1.000   5.76    0.00     0.00    0.00   1    8.00     0    0    0   448   0.0  1   1    7    0   0.000    0.000    0.000  1
 78   1    1  1 0 2    73  16   100  256  256     0.00000   9.97143 3.65651e-003  1070  1860   0.00  -0.00  -0.00   -5.06   12.64   10.10  1.000  0.000 0 2 0 2  1.000  1.000   2.30    0.00     0.00    0.00   1    8.00     0    0    0   448   0.0  1   1    7    0   0.000    0.000    0.000  1
 65   1    1  1 0 2    74  16   100  256  256     0.00000   9.97143 3.65651e-003  1070  1860   0.00  -0.00  -0.00   -5.06   12.64   23.10  1.000  0.000 0 2 0 2  1.000  1.000   2.30    0.00     0.00    0.00   1    8.00     0    0    0   448   0.0  1   1    7    0   0.000    0.000    0.000  1
166   2    1  1 0 2    75  16   100  256  256     0.00000   9.97143 3.65651e-003  1070  1860   0.00  -0.00  -0.00   -5.06   12.64  -77.90  1.000  0.000 0 2 0 2  1.000  1.000   5.76    0.00     0.00    0.00   1    8.00     0    0    0   448   0.0  1   1    7    0   0.000    0.000    0.000  1
 97   1    1  1 0 2    76  16   100  256  256     0.00000   9.97143 3.65651e-003  1070  1860   0.00  -0.00  -0.00   -5.06   12.64   -8.90  1.000  0.000 0 2 0 2  1.000  1.000   2.30    0.00     0.00    0.00   1    8.00     0    0    0   448   0.0  1   1    7    0   0.000    0.000    0.000  1
 16   1    1  1 0 2    77  16   100  256  256     0.00000   9.97143 3.65651e-003  1070  1860   0.00  -0.00  -0.00   -5.06   12.64   72.10  1.000  0.000 0 2 0 2  1.000  1.000   2.30    0.00     0.00    0.00   1    8.00     0    0    0   448   0.0  1   1    7    0   0.000    0.000    0.000  1
 77   1    1  1 0 2    78  16   100  256  256     0.00000   9.97143 3.65651e-003  1070  1860   0.00  -0.00  -0.00   -5.06   12.64   11.10  1.000  0.000 0 2 0 2  1.000  1.000   2.30    0.00     0.00    0.00   1    8.00     0    0    0   448   0.0  1   1    7    0   0.000    0.000    0.000  1
 66   1    1  1 0 2    79  16   100  256  256     0.00000   9.97143 3.65651e-003  1070  1860   0.00  -0.00  -0.00   -5.06   12.64   22.10  1.000  0.000 0 2 0 2  1.000  1.000   2.30    0.00     0.00    0.00   1    8.00     0    0    0   448   0.0  1   1    7    0   0.000    0.000    0.000  1
 15   2    1  1 0 2    80  16   100  256  256     0.00000   9.97143 3.65651e-003  1070  1860   0.00  -0.00  -0.00   -5.06   12.64   73.10  1.000  0.000 0 2 0 2  1.000  1.000   5.76    0.00     0.00    0.00   1    8.00     0    0    0   448   0.0  1   1    7    0   0.000    0.000    0.000  1
 17   1    1  1 0 2    81  16   100  256  256     0.00000   9.97143 3.65651e-003  1070  1860   0.00  -0.00  -0.00   -5.06   12.64   71.10  1.000  0.000 0 2 0 2  1.000  1.000   2.30    0.00     0.00    0.00   1    8.00     0    0    0   448   0.0  1   1    7    0   0.000    0.000    0.000  1
 96   1    1  1 0 2    82  16   100  256  256     0.00000   9.97143 3.65651e-003  1070  1860   0.00  -0.00  -0.00   -5.06   12.64   -7.90  1.000  0.000 0 2 0 2  1.000  1.000   2.30    0.00     0.00    0.00   1    8.00     0    0    0   448   0.0  1   1    7    0   0.000    0.000    0.000  1
 67   1    1  1 0 2    83  16   100  256  256     0.00000   9.97143 3.65651e-003  1070  1860   0.00  -0.00  -0.00   -5.06   12.64   21.10  1.000  0.000 0 2 0 2  1.000  1.000   2.30    0.00     0.00    0.00   1    8.00     0    0    0   448   0.0  1   1    7    0   0.000    0.000    0.000  1
