# === DATA DESCRIPTION FILE ======================================================
#
# CAUTION - Investigational device.
# Limited by Federal Law to investigational use.
#
# Dataset name: Dump-0000
#
# CLINICAL TRYOUT             Research image export tool     V4.2
#
# === GENERAL INFORMATION ========================================================
#
.    Patient name                       :   
.    Examination name                   :   
.    Protocol name                      :   
.    Examination date/time              :   
.    Series Type                        :   Image   MRSERIES
.    Acquisition nr                     :   1
.    Reconstruction nr                  :   0
.    Scan Duration [sec]                :   0
.    Max. number of cardiac phases      :   1
.    Max. number of echoes              :   1
.    Max. number of slices/locations    :   37
.    Max. number of dynamics            :   1
.    Max. number of mixes               :   2
.    Patient position                   :   
.    Preparation direction              :   
.    Technique                          :   
.    Scan resolution  (x, y)            :   0  0
.    Scan mode                          :   
.    Repetition time [ms]               :   2.00000170898437
.    FOV (ap,fh,rl) [mm]                :   0  0  0
.    Water Fat shift [pixels]           :   0
.    Angulation midslice(ap,fh,rl)[degr]:   0  0  0
.    Off Centre midslice(ap,fh,rl) [mm] :   0  0  0
.    Flow compensation <0=no 1=yes> ?   :   0
.    Presaturation     <0=no 1=yes> ?   :   0
.    Phase encoding velocity [cm/sec]   :   0  0  0
.    MTC               <0=no 1=yes> ?   :   0
.    SPIR              <0=no 1=yes> ?   :   0
.    EPI factor        <0,1=no EPI>     :   0
.    Dynamic scan      <0=no 1=yes> ?   :   0
.    Diffusion         <0=no 1=yes> ?   :   0
.    Diffusion echo time [ms]           :   0
.    Max. number of diffusion values    :   1
.    Max. number of gradient orients    :   1
.    Number of label types   <0=no ASL> :   1
#
# === PIXEL VALUES =============================================================
#  PV = pixel value in REC file, FP = floating point value, DV = displayed value on console
#  RS = rescale slope,           RI = rescale intercept,    SS = scale slope
#  DV = PV * RS + RI             FP = DV / (RS * SS)
#
# === IMAGE INFORMATION DEFINITION =============================================
#  The rest of this file contains ONE line per image, this line contains the following information:
#
#  slice number                             (integer)
#  echo number                              (integer)
#  dynamic scan number                      (integer)
#  cardiac phase number                     (integer)
#  image_type_mr                            (integer)
#  scanning sequence                        (integer)
#  index in REC file (in images)            (integer)
#  image pixel size (in bits)               (integer)
#  scan percentage                          (integer)
#  recon resolution (x y)                   (2*integer)
#  rescale intercept                        (float)
#  rescale slope                            (float)
#  scale slope                              (float)
#  window center                            (integer)
#  window width                             (integer)
#  image angulation (ap,fh,rl in degrees )  (3*float)
#  image offcentre (ap,fh,rl in mm )        (3*float)
#  slice thickness (in mm )                 (float)
#  slice gap (in mm )                       (float)
#  image_display_orientation                (integer)
#  slice orientation ( TRA/SAG/COR )        (integer)
#  fmri_status_indication                   (integer)
#  image_type_ed_es  (end diast/end syst)   (integer)
#  pixel spacing (x,y) (in mm)              (2*float)
#  echo_time                                (float)
#  dyn_scan_begin_time                      (float)
#  trigger_time                             (float)
#  diffusion_b_factor                       (float)
#  number of averages                       (integer)
#  image_flip_angle (in degrees)            (float)
#  cardiac frequency   (bpm)                (integer)
#  minimum RR-interval (in ms)              (integer)
#  maximum RR-interval (in ms)              (integer)
#  TURBO factor  <0=no turbo>               (integer)
#  Inversion delay (in ms)                  (float)
#  diffusion b value number    (imagekey!)  (integer)
#  gradient orientation number (imagekey!)  (integer)
#  contrast type                            (string)
#  diffusion anisotropy type                (string)
#  diffusion (ap, fh, rl)                   (3*float)
#  label type (ASL)            (imagekey!)  (integer)
#
# === IMAGE INFORMATION ==========================================================
#  sl ec  dyn ph ty    idx pix scan% rec size                (re)scale              window        angulation              offcentre        thick   gap   info      spacing     echo     dtime   ttime    diff  avg  flip    freq   RR-int  turbo delay b grad cont anis         diffusion       L.ty

1 1 1 0 17 0 0 16 0 80 80 -3142 1.53455433455433 651.739501953125 -2374.72283272283 767.277167277167 -3.9000002422219 -2.2999999682654 -29.9999985510007 -28.1000003814697 -55.5999984741211 1.29999995231628 3.5 0 0 1 0 0 2.7 2.7 0.0300002002716064 0 0 0 0 80 0 0 0 0 0 0 0 11 0 0 0 0 0
2 1 1 0 17 0 1 16 0 80 80 -3142 1.53455433455433 651.739501953125 -2374.72283272283 767.277167277167 -3.9000002422219 -2.2999999682654 -29.9999985510007 -26.2999992370605 -52.5999984741211 1.10000002384186 3.5 0 0 1 0 0 2.7 2.7 0.0300002002716064 0 0 0 0 80 0 0 0 0 0 0 0 11 0 0 0 0 0
3 1 1 0 17 0 2 16 0 80 80 -3142 1.53455433455433 651.739501953125 -2374.72283272283 767.277167277167 -3.9000002422219 -2.2999999682654 -29.9999985510007 -24.6000003814697 -49.5999984741211 0.800000011920929 3.5 0 0 1 0 0 2.7 2.7 0.0300002002716064 0 0 0 0 80 0 0 0 0 0 0 0 11 0 0 0 0 0
4 1 1 0 17 0 3 16 0 80 80 -3142 1.53455433455433 651.739501953125 -2374.72283272283 767.277167277167 -3.9000002422219 -2.2999999682654 -29.9999985510007 -22.7999992370605 -46.5999984741211 0.600000023841858 3.5 0 0 1 0 0 2.7 2.7 0.0300002002716064 0 0 0 0 80 0 0 0 0 0 0 0 11 0 0 0 0 0
5 1 1 0 17 0 4 16 0 80 80 -3142 1.53455433455433 651.739501953125 -2374.72283272283 767.277167277167 -3.9000002422219 -2.2999999682654 -29.9999985510007 -21.1000003814697 -43.5 0.400000005960464 3.5 0 0 1 0 0 2.7 2.7 0.0300002002716064 0 0 0 0 80 0 0 0 0 0 0 0 11 0 0 0 0 0
6 1 1 0 17 0 5 16 0 80 80 -3142 1.53455433455433 651.739501953125 -2374.72283272283 767.277167277167 -3.9000002422219 -2.2999999682654 -29.9999985510007 -19.2999992370605 -40.5 0.100000001490116 3.5 0 0 1 0 0 2.7 2.7 0.0300002002716064 0 0 0 0 80 0 0 0 0 0 0 0 11 0 0 0 0 0
7 1 1 0 17 0 6 16 0 80 80 -3142 1.53455433455433 651.739501953125 -2374.72283272283 767.277167277167 -3.9000002422219 -2.2999999682654 -29.9999985510007 -17.6000003814697 -37.5 -0.100000001490116 3.5 0 0 1 0 0 2.7 2.7 0.0300002002716064 0 0 0 0 80 0 0 0 0 0 0 0 11 0 0 0 0 0
8 1 1 0 17 0 7 16 0 80 80 -3142 1.53455433455433 651.739501953125 -2374.72283272283 767.277167277167 -3.9000002422219 -2.2999999682654 -29.9999985510007 -15.8000001907349 -34.5 -0.400000005960464 3.5 0 0 1 0 0 2.7 2.7 0.0300002002716064 0 0 0 0 80 0 0 0 0 0 0 0 11 0 0 0 0 0
9 1 1 0 17 0 8 16 0 80 80 -3142 1.53455433455433 651.739501953125 -2374.72283272283 767.277167277167 -3.9000002422219 -2.2999999682654 -29.9999985510007 -14.1000003814697 -31.3999996185303 -0.600000023841858 3.5 0 0 1 0 0 2.7 2.7 0.0300002002716064 0 0 0 0 80 0 0 0 0 0 0 0 11 0 0 0 0 0
10 1 1 0 17 0 9 16 0 80 80 -3142 1.53455433455433 651.739501953125 -2374.72283272283 767.277167277167 -3.9000002422219 -2.2999999682654 -29.9999985510007 -12.3000001907349 -28.3999996185303 -0.800000011920929 3.5 0 0 1 0 0 2.7 2.7 0.0300002002716064 0 0 0 0 80 0 0 0 0 0 0 0 11 0 0 0 0 0
11 1 1 0 17 0 10 16 0 80 80 -3142 1.53455433455433 651.739501953125 -2374.72283272283 767.277167277167 -3.9000002422219 -2.2999999682654 -29.9999985510007 -10.6000003814697 -25.3999996185303 -1.10000002384186 3.5 0 0 1 0 0 2.7 2.7 0.0300002002716064 0 0 0 0 80 0 0 0 0 0 0 0 11 0 0 0 0 0
12 1 1 0 17 0 11 16 0 80 80 -3142 1.53455433455433 651.739501953125 -2374.72283272283 767.277167277167 -3.9000002422219 -2.2999999682654 -29.9999985510007 -8.89999961853027 -22.3999996185303 -1.29999995231628 3.5 0 0 1 0 0 2.7 2.7 0.0300002002716064 0 0 0 0 80 0 0 0 0 0 0 0 11 0 0 0 0 0
13 1 1 0 17 0 12 16 0 80 80 -3142 1.53455433455433 651.739501953125 -2374.72283272283 767.277167277167 -3.9000002422219 -2.2999999682654 -29.9999985510007 -7.09999990463257 -19.2999992370605 -1.5 3.5 0 0 1 0 0 2.7 2.7 0.0300002002716064 0 0 0 0 80 0 0 0 0 0 0 0 11 0 0 0 0 0
14 1 1 0 17 0 13 16 0 80 80 -3142 1.53455433455433 651.739501953125 -2374.72283272283 767.277167277167 -3.9000002422219 -2.2999999682654 -29.9999985510007 -5.40000009536743 -16.2999992370605 -1.79999995231628 3.5 0 0 1 0 0 2.7 2.7 0.0300002002716064 0 0 0 0 80 0 0 0 0 0 0 0 11 0 0 0 0 0
15 1 1 0 17 0 14 16 0 80 80 -3142 1.53455433455433 651.739501953125 -2374.72283272283 767.277167277167 -3.9000002422219 -2.2999999682654 -29.9999985510007 -3.59999990463257 -13.3000001907349 -2 3.5 0 0 1 0 0 2.7 2.7 0.0300002002716064 0 0 0 0 80 0 0 0 0 0 0 0 11 0 0 0 0 0
16 1 1 0 17 0 15 16 0 80 80 -3142 1.53455433455433 651.739501953125 -2374.72283272283 767.277167277167 -3.9000002422219 -2.2999999682654 -29.9999985510007 -1.89999997615814 -10.3000001907349 -2.29999995231628 3.5 0 0 1 0 0 2.7 2.7 0.0300002002716064 0 0 0 0 80 0 0 0 0 0 0 0 11 0 0 0 0 0
17 1 1 0 17 0 16 16 0 80 80 -3142 1.53455433455433 651.739501953125 -2374.72283272283 767.277167277167 -3.9000002422219 -2.2999999682654 -29.9999985510007 -0.100000001490116 -7.19999980926514 -2.5 3.5 0 0 1 0 0 2.7 2.7 0.0300002002716064 0 0 0 0 80 0 0 0 0 0 0 0 11 0 0 0 0 0
18 1 1 0 17 0 17 16 0 80 80 -3142 1.53455433455433 651.739501953125 -2374.72283272283 767.277167277167 -3.9000002422219 -2.2999999682654 -29.9999985510007 1.60000002384186 -4.19999980926514 -2.70000004768372 3.5 0 0 1 0 0 2.7 2.7 0.0300002002716064 0 0 0 0 80 0 0 0 0 0 0 0 11 0 0 0 0 0
19 1 1 0 17 0 18 16 0 80 80 -3142 1.53455433455433 651.739501953125 -2374.72283272283 767.277167277167 -3.9000002422219 -2.2999999682654 -29.9999985510007 3.40000009536743 -1.20000004768372 -3 3.5 0 0 1 0 0 2.7 2.7 0.0300002002716064 0 0 0 0 80 0 0 0 0 0 0 0 11 0 0 0 0 0
20 1 1 0 17 0 19 16 0 80 80 -3142 1.53455433455433 651.739501953125 -2374.72283272283 767.277167277167 -3.9000002422219 -2.2999999682654 -29.9999985510007 5.09999990463257 1.79999995231628 -3.20000004768372 3.5 0 0 1 0 0 2.7 2.7 0.0300002002716064 0 0 0 0 80 0 0 0 0 0 0 0 11 0 0 0 0 0
21 1 1 0 17 0 20 16 0 80 80 -3142 1.53455433455433 651.739501953125 -2374.72283272283 767.277167277167 -3.9000002422219 -2.2999999682654 -29.9999985510007 6.90000009536743 4.90000009536743 -3.5 3.5 0 0 1 0 0 2.7 2.7 0.0300002002716064 0 0 0 0 80 0 0 0 0 0 0 0 11 0 0 0 0 0
22 1 1 0 17 0 21 16 0 80 80 -3142 1.53455433455433 651.739501953125 -2374.72283272283 767.277167277167 -3.9000002422219 -2.2999999682654 -29.9999985510007 8.60000038146973 7.90000009536743 -3.70000004768372 3.5 0 0 1 0 0 2.7 2.7 0.0300002002716064 0 0 0 0 80 0 0 0 0 0 0 0 11 0 0 0 0 0
23 1 1 0 17 0 22 16 0 80 80 -3142 1.53455433455433 651.739501953125 -2374.72283272283 767.277167277167 -3.9000002422219 -2.2999999682654 -29.9999985510007 10.3999996185303 10.8999996185303 -3.90000009536743 3.5 0 0 1 0 0 2.7 2.7 0.0300002002716064 0 0 0 0 80 0 0 0 0 0 0 0 11 0 0 0 0 0
24 1 1 0 17 0 23 16 0 80 80 -3142 1.53455433455433 651.739501953125 -2374.72283272283 767.277167277167 -3.9000002422219 -2.2999999682654 -29.9999985510007 12.1000003814697 13.8999996185303 -4.19999980926514 3.5 0 0 1 0 0 2.7 2.7 0.0300002002716064 0 0 0 0 80 0 0 0 0 0 0 0 11 0 0 0 0 0
25 1 1 0 17 0 24 16 0 80 80 -3142 1.53455433455433 651.739501953125 -2374.72283272283 767.277167277167 -3.9000002422219 -2.2999999682654 -29.9999985510007 13.8000001907349 17 -4.40000009536743 3.5 0 0 1 0 0 2.7 2.7 0.0300002002716064 0 0 0 0 80 0 0 0 0 0 0 0 11 0 0 0 0 0
26 1 1 0 17 0 25 16 0 80 80 -3142 1.53455433455433 651.739501953125 -2374.72283272283 767.277167277167 -3.9000002422219 -2.2999999682654 -29.9999985510007 15.6000003814697 20 -4.69999980926514 3.5 0 0 1 0 0 2.7 2.7 0.0300002002716064 0 0 0 0 80 0 0 0 0 0 0 0 11 0 0 0 0 0
27 1 1 0 17 0 26 16 0 80 80 -3142 1.53455433455433 651.739501953125 -2374.72283272283 767.277167277167 -3.9000002422219 -2.2999999682654 -29.9999985510007 17.2999992370605 23 -4.90000009536743 3.5 0 0 1 0 0 2.7 2.7 0.0300002002716064 0 0 0 0 80 0 0 0 0 0 0 0 11 0 0 0 0 0
28 1 1 0 17 0 27 16 0 80 80 -3142 1.53455433455433 651.739501953125 -2374.72283272283 767.277167277167 -3.9000002422219 -2.2999999682654 -29.9999985510007 19.1000003814697 26 -5.09999990463257 3.5 0 0 1 0 0 2.7 2.7 0.0300002002716064 0 0 0 0 80 0 0 0 0 0 0 0 11 0 0 0 0 0
29 1 1 0 17 0 28 16 0 80 80 -3142 1.53455433455433 651.739501953125 -2374.72283272283 767.277167277167 -3.9000002422219 -2.2999999682654 -29.9999985510007 20.7999992370605 29.1000003814697 -5.40000009536743 3.5 0 0 1 0 0 2.7 2.7 0.0300002002716064 0 0 0 0 80 0 0 0 0 0 0 0 11 0 0 0 0 0
30 1 1 0 17 0 29 16 0 80 80 -3142 1.53455433455433 651.739501953125 -2374.72283272283 767.277167277167 -3.9000002422219 -2.2999999682654 -29.9999985510007 22.6000003814697 32.0999984741211 -5.59999990463257 3.5 0 0 1 0 0 2.7 2.7 0.0300002002716064 0 0 0 0 80 0 0 0 0 0 0 0 11 0 0 0 0 0
31 1 1 0 17 0 30 16 0 80 80 -3142 1.53455433455433 651.739501953125 -2374.72283272283 767.277167277167 -3.9000002422219 -2.2999999682654 -29.9999985510007 24.2999992370605 35.0999984741211 -5.80000019073486 3.5 0 0 1 0 0 2.7 2.7 0.0300002002716064 0 0 0 0 80 0 0 0 0 0 0 0 11 0 0 0 0 0
32 1 1 0 17 0 31 16 0 80 80 -3142 1.53455433455433 651.739501953125 -2374.72283272283 767.277167277167 -3.9000002422219 -2.2999999682654 -29.9999985510007 26.1000003814697 38.0999984741211 -6.09999990463257 3.5 0 0 1 0 0 2.7 2.7 0.0300002002716064 0 0 0 0 80 0 0 0 0 0 0 0 11 0 0 0 0 0
33 1 1 0 17 0 32 16 0 80 80 -3142 1.53455433455433 651.739501953125 -2374.72283272283 767.277167277167 -3.9000002422219 -2.2999999682654 -29.9999985510007 27.7999992370605 41.0999984741211 -6.30000019073486 3.5 0 0 1 0 0 2.7 2.7 0.0300002002716064 0 0 0 0 80 0 0 0 0 0 0 0 11 0 0 0 0 0
34 1 1 0 17 0 33 16 0 80 80 -3142 1.53455433455433 651.739501953125 -2374.72283272283 767.277167277167 -3.9000002422219 -2.2999999682654 -29.9999985510007 29.6000003814697 44.2000007629395 -6.59999990463257 3.5 0 0 1 0 0 2.7 2.7 0.0300002002716064 0 0 0 0 80 0 0 0 0 0 0 0 11 0 0 0 0 0
35 1 1 0 17 0 34 16 0 80 80 -3142 1.53455433455433 651.739501953125 -2374.72283272283 767.277167277167 -3.9000002422219 -2.2999999682654 -29.9999985510007 31.2999992370605 47.2000007629395 -6.80000019073486 3.5 0 0 1 0 0 2.7 2.7 0.0300002002716064 0 0 0 0 80 0 0 0 0 0 0 0 11 0 0 0 0 0
36 1 1 0 17 0 35 16 0 80 80 -3142 1.53455433455433 651.739501953125 -2374.72283272283 767.277167277167 -3.9000002422219 -2.2999999682654 -29.9999985510007 33.0999984741211 50.2000007629395 -7 3.5 0 0 1 0 0 2.7 2.7 0.0300002002716064 0 0 0 0 80 0 0 0 0 0 0 0 11 0 0 0 0 0
37 1 1 0 17 0 36 16 0 80 80 -3142 1.53455433455433 651.739501953125 -2374.72283272283 767.277167277167 -3.9000002422219 -2.2999999682654 -29.9999985510007 34.7999992370605 53.2000007629395 -7.30000019073486 3.5 0 0 1 0 0 2.7 2.7 0.0300002002716064 0 0 0 0 80 0 0 0 0 0 0 0 11 0 0 0 0 0
1 1 1 0 16 0 37 16 0 80 80 0 0.488400488400488 0.00991736631840467 244.200244200244 244.200244200244 -3.9000002422219 -2.2999999682654 -29.9999985510007 -28.1000003814697 -55.5999984741211 1.29999995231628 3.5 0 0 1 0 0 2.7 2.7 0.0300002002716064 0 0 0 0 80 0 0 0 0 0 0 0 11 0 0 0 0 0
2 1 1 0 16 0 38 16 0 80 80 0 0.489377289377289 0.0098956935107708 244.688644688645 244.688644688645 -3.9000002422219 -2.2999999682654 -29.9999985510007 -26.2999992370605 -52.5999984741211 1.10000002384186 3.5 0 0 1 0 0 2.7 2.7 0.0300002002716064 0 0 0 0 80 0 0 0 0 0 0 0 11 0 0 0 0 0
3 1 1 0 16 0 39 16 0 80 80 0 0.492063492063492 0.00984135083854198 246.031746031746 246.031746031746 -3.9000002422219 -2.2999999682654 -29.9999985510007 -24.6000003814697 -49.5999984741211 0.800000011920929 3.5 0 0 1 0 0 2.7 2.7 0.0300002002716064 0 0 0 0 80 0 0 0 0 0 0 0 11 0 0 0 0 0
4 1 1 0 16 0 40 16 0 80 80 0 0.508180708180708 0.00953279715031385 254.090354090354 254.090354090354 -3.9000002422219 -2.2999999682654 -29.9999985510007 -22.7999992370605 -46.5999984741211 0.600000023841858 3.5 0 0 1 0 0 2.7 2.7 0.0300002002716064 0 0 0 0 80 0 0 0 0 0 0 0 11 0 0 0 0 0
5 1 1 0 16 0 41 16 0 80 80 0 0.538461538461538 0.00899406615644693 269.230769230769 269.230769230769 -3.9000002422219 -2.2999999682654 -29.9999985510007 -21.1000003814697 -43.5 0.400000005960464 3.5 0 0 1 0 0 2.7 2.7 0.0300002002716064 0 0 0 0 80 0 0 0 0 0 0 0 11 0 0 0 0 0
6 1 1 0 16 0 42 16 0 80 80 0 0.582417582417582 0.00831656809896231 291.208791208791 291.208791208791 -3.9000002422219 -2.2999999682654 -29.9999985510007 -19.2999992370605 -40.5 0.100000001490116 3.5 0 0 1 0 0 2.7 2.7 0.0300002002716064 0 0 0 0 80 0 0 0 0 0 0 0 11 0 0 0 0 0
7 1 1 0 16 0 43 16 0 80 80 0 0.563125763125763 0.00859958119690418 281.562881562882 281.562881562882 -3.9000002422219 -2.2999999682654 -29.9999985510007 -17.6000003814697 -37.5 -0.100000001490116 3.5 0 0 1 0 0 2.7 2.7 0.0300002002716064 0 0 0 0 80 0 0 0 0 0 0 0 11 0 0 0 0 0
8 1 1 0 16 0 44 16 0 80 80 0 0.50964590964591 0.00950406584888697 254.822954822955 254.822954822955 -3.9000002422219 -2.2999999682654 -29.9999985510007 -15.8000001907349 -34.5 -0.400000005960464 3.5 0 0 1 0 0 2.7 2.7 0.0300002002716064 0 0 0 0 80 0 0 0 0 0 0 0 11 0 0 0 0 0
9 1 1 0 16 0 45 16 0 80 80 0 0.47032967032967 0.0103007201105356 235.164835164835 235.164835164835 -3.9000002422219 -2.2999999682654 -29.9999985510007 -14.1000003814697 -31.3999996185303 -0.600000023841858 3.5 0 0 1 0 0 2.7 2.7 0.0300002002716064 0 0 0 0 80 0 0 0 0 0 0 0 11 0 0 0 0 0
10 1 1 0 16 0 46 16 0 80 80 0 0.470573870573871 0.0102931028231978 235.286935286935 235.286935286935 -3.9000002422219 -2.2999999682654 -29.9999985510007 -12.3000001907349 -28.3999996185303 -0.800000011920929 3.5 0 0 1 0 0 2.7 2.7 0.0300002002716064 0 0 0 0 80 0 0 0 0 0 0 0 11 0 0 0 0 0
11 1 1 0 16 0 47 16 0 80 80 0 0.457631257631258 0.0105842854827642 228.815628815629 228.815628815629 -3.9000002422219 -2.2999999682654 -29.9999985510007 -10.6000003814697 -25.3999996185303 -1.10000002384186 3.5 0 0 1 0 0 2.7 2.7 0.0300002002716064 0 0 0 0 80 0 0 0 0 0 0 0 11 0 0 0 0 0
12 1 1 0 16 0 48 16 0 80 80 0 0.442735042735043 0.0109424209222198 221.367521367521 221.367521367521 -3.9000002422219 -2.2999999682654 -29.9999985510007 -8.89999961853027 -22.3999996185303 -1.29999995231628 3.5 0 0 1 0 0 2.7 2.7 0.0300002002716064 0 0 0 0 80 0 0 0 0 0 0 0 11 0 0 0 0 0
13 1 1 0 16 0 49 16 0 80 80 0 0.437851037851038 0.0110645797103643 218.925518925519 218.925518925519 -3.9000002422219 -2.2999999682654 -29.9999985510007 -7.09999990463257 -19.2999992370605 -1.5 3.5 0 0 1 0 0 2.7 2.7 0.0300002002716064 0 0 0 0 80 0 0 0 0 0 0 0 11 0 0 0 0 0
14 1 1 0 16 0 50 16 0 80 80 0 0.434676434676435 0.0111443726345897 217.338217338217 217.338217338217 -3.9000002422219 -2.2999999682654 -29.9999985510007 -5.40000009536743 -16.2999992370605 -1.79999995231628 3.5 0 0 1 0 0 2.7 2.7 0.0300002002716064 0 0 0 0 80 0 0 0 0 0 0 0 11 0 0 0 0 0
15 1 1 0 16 0 51 16 0 80 80 0 0.419291819291819 0.0115514537319541 209.64590964591 209.64590964591 -3.9000002422219 -2.2999999682654 -29.9999985510007 -3.59999990463257 -13.3000001907349 -2 3.5 0 0 1 0 0 2.7 2.7 0.0300002002716064 0 0 0 0 80 0 0 0 0 0 0 0 11 0 0 0 0 0
16 1 1 0 16 0 52 16 0 80 80 0 0.422222222222222 0.011470353230834 211.111111111111 211.111111111111 -3.9000002422219 -2.2999999682654 -29.9999985510007 -1.89999997615814 -10.3000001907349 -2.29999995231628 3.5 0 0 1 0 0 2.7 2.7 0.0300002002716064 0 0 0 0 80 0 0 0 0 0 0 0 11 0 0 0 0 0
17 1 1 0 16 0 53 16 0 80 80 0 0.442979242979243 0.0109320040792227 221.489621489621 221.489621489621 -3.9000002422219 -2.2999999682654 -29.9999985510007 -0.100000001490116 -7.19999980926514 -2.5 3.5 0 0 1 0 0 2.7 2.7 0.0300002002716064 0 0 0 0 80 0 0 0 0 0 0 0 11 0 0 0 0 0
18 1 1 0 16 0 54 16 0 80 80 0 0.454212454212454 0.010661456733942 227.106227106227 227.106227106227 -3.9000002422219 -2.2999999682654 -29.9999985510007 1.60000002384186 -4.19999980926514 -2.70000004768372 3.5 0 0 1 0 0 2.7 2.7 0.0300002002716064 0 0 0 0 80 0 0 0 0 0 0 0 11 0 0 0 0 0
19 1 1 0 16 0 55 16 0 80 80 0 0.438583638583639 0.0110444780439138 219.291819291819 219.291819291819 -3.9000002422219 -2.2999999682654 -29.9999985510007 3.40000009536743 -1.20000004768372 -3 3.5 0 0 1 0 0 2.7 2.7 0.0300002002716064 0 0 0 0 80 0 0 0 0 0 0 0 11 0 0 0 0 0
20 1 1 0 16 0 56 16 0 80 80 0 0.451770451770452 0.0107228131964803 225.885225885226 225.885225885226 -3.9000002422219 -2.2999999682654 -29.9999985510007 5.09999990463257 1.79999995231628 -3.20000004768372 3.5 0 0 1 0 0 2.7 2.7 0.0300002002716064 0 0 0 0 80 0 0 0 0 0 0 0 11 0 0 0 0 0
21 1 1 0 16 0 57 16 0 80 80 0 0.43956043956044 0.0110190957784653 219.78021978022 219.78021978022 -3.9000002422219 -2.2999999682654 -29.9999985510007 6.90000009536743 4.90000009536743 -3.5 3.5 0 0 1 0 0 2.7 2.7 0.0300002002716064 0 0 0 0 80 0 0 0 0 0 0 0 11 0 0 0 0 0
22 1 1 0 16 0 58 16 0 80 80 0 0.418559218559219 0.0115696135908365 209.279609279609 209.279609279609 -3.9000002422219 -2.2999999682654 -29.9999985510007 8.60000038146973 7.90000009536743 -3.70000004768372 3.5 0 0 1 0 0 2.7 2.7 0.0300002002716064 0 0 0 0 80 0 0 0 0 0 0 0 11 0 0 0 0 0
23 1 1 0 16 0 59 16 0 80 80 0 0.393406593406593 0.0123128313571215 196.703296703297 196.703296703297 -3.9000002422219 -2.2999999682654 -29.9999985510007 10.3999996185303 10.8999996185303 -3.90000009536743 3.5 0 0 1 0 0 2.7 2.7 0.0300002002716064 0 0 0 0 80 0 0 0 0 0 0 0 11 0 0 0 0 0
24 1 1 0 16 0 60 16 0 80 80 0 0.355799755799756 0.0136143220588565 177.899877899878 177.899877899878 -3.9000002422219 -2.2999999682654 -29.9999985510007 12.1000003814697 13.8999996185303 -4.19999980926514 3.5 0 0 1 0 0 2.7 2.7 0.0300002002716064 0 0 0 0 80 0 0 0 0 0 0 0 11 0 0 0 0 0
25 1 1 0 16 0 61 16 0 80 80 0 0.317460317460317 0.0152558228000998 158.730158730159 158.730158730159 -3.9000002422219 -2.2999999682654 -29.9999985510007 13.8000001907349 17 -4.40000009536743 3.5 0 0 1 0 0 2.7 2.7 0.0300002002716064 0 0 0 0 80 0 0 0 0 0 0 0 11 0 0 0 0 0
26 1 1 0 16 0 62 16 0 80 80 0 0.341636141636142 0.0141819268465042 170.818070818071 170.818070818071 -3.9000002422219 -2.2999999682654 -29.9999985510007 15.6000003814697 20 -4.69999980926514 3.5 0 0 1 0 0 2.7 2.7 0.0300002002716064 0 0 0 0 80 0 0 0 0 0 0 0 11 0 0 0 0 0
27 1 1 0 16 0 63 16 0 80 80 0 0.339438339438339 0.0142712369561195 169.71916971917 169.71916971917 -3.9000002422219 -2.2999999682654 -29.9999985510007 17.2999992370605 23 -4.90000009536743 3.5 0 0 1 0 0 2.7 2.7 0.0300002002716064 0 0 0 0 80 0 0 0 0 0 0 0 11 0 0 0 0 0
28 1 1 0 16 0 64 16 0 80 80 0 0.343345543345543 0.0141055593267083 171.672771672772 171.672771672772 -3.9000002422219 -2.2999999682654 -29.9999985510007 19.1000003814697 26 -5.09999990463257 3.5 0 0 1 0 0 2.7 2.7 0.0300002002716064 0 0 0 0 80 0 0 0 0 0 0 0 11 0 0 0 0 0
29 1 1 0 16 0 65 16 0 80 80 0 0.381929181929182 0.0126843014732003 190.964590964591 190.964590964591 -3.9000002422219 -2.2999999682654 -29.9999985510007 20.7999992370605 29.1000003814697 -5.40000009536743 3.5 0 0 1 0 0 2.7 2.7 0.0300002002716064 0 0 0 0 80 0 0 0 0 0 0 0 11 0 0 0 0 0
30 1 1 0 16 0 66 16 0 80 80 0 0.434920634920635 0.0111344903707504 217.460317460317 217.460317460317 -3.9000002422219 -2.2999999682654 -29.9999985510007 22.6000003814697 32.0999984741211 -5.59999990463257 3.5 0 0 1 0 0 2.7 2.7 0.0300002002716064 0 0 0 0 80 0 0 0 0 0 0 0 11 0 0 0 0 0
31 1 1 0 16 0 67 16 0 80 80 0 0.430769230769231 0.0112440697848797 215.384615384615 215.384615384615 -3.9000002422219 -2.2999999682654 -29.9999985510007 24.2999992370605 35.0999984741211 -5.80000019073486 3.5 0 0 1 0 0 2.7 2.7 0.0300002002716064 0 0 0 0 80 0 0 0 0 0 0 0 11 0 0 0 0 0
32 1 1 0 16 0 68 16 0 80 80 0 0.448595848595849 0.010798366740346 224.297924297924 224.297924297924 -3.9000002422219 -2.2999999682654 -29.9999985510007 26.1000003814697 38.0999984741211 -6.09999990463257 3.5 0 0 1 0 0 2.7 2.7 0.0300002002716064 0 0 0 0 80 0 0 0 0 0 0 0 11 0 0 0 0 0
33 1 1 0 16 0 69 16 0 80 80 0 0.508424908424908 0.00952458381652832 254.212454212454 254.212454212454 -3.9000002422219 -2.2999999682654 -29.9999985510007 27.7999992370605 41.0999984741211 -6.30000019073486 3.5 0 0 1 0 0 2.7 2.7 0.0300002002716064 0 0 0 0 80 0 0 0 0 0 0 0 11 0 0 0 0 0
34 1 1 0 16 0 70 16 0 80 80 0 0.47032967032967 0.0102959554642439 235.164835164835 235.164835164835 -3.9000002422219 -2.2999999682654 -29.9999985510007 29.6000003814697 44.2000007629395 -6.59999990463257 3.5 0 0 1 0 0 2.7 2.7 0.0300002002716064 0 0 0 0 80 0 0 0 0 0 0 0 11 0 0 0 0 0
35 1 1 0 16 0 71 16 0 80 80 0 0.511843711843712 0.00946179777383804 255.921855921856 255.921855921856 -3.9000002422219 -2.2999999682654 -29.9999985510007 31.2999992370605 47.2000007629395 -6.80000019073486 3.5 0 0 1 0 0 2.7 2.7 0.0300002002716064 0 0 0 0 80 0 0 0 0 0 0 0 11 0 0 0 0 0
36 1 1 0 16 0 72 16 0 80 80 0 0.471794871794872 0.0102670257911086 235.897435897436 235.897435897436 -3.9000002422219 -2.2999999682654 -29.9999985510007 33.0999984741211 50.2000007629395 -7 3.5 0 0 1 0 0 2.7 2.7 0.0300002002716064 0 0 0 0 80 0 0 0 0 0 0 0 11 0 0 0 0 0
37 1 1 0 16 0 73 16 0 80 80 0 0.472771672771673 0.0102435695007443 236.385836385836 236.385836385836 -3.9000002422219 -2.2999999682654 -29.9999985510007 34.7999992370605 53.2000007629395 -7.30000019073486 3.5 0 0 1 0 0 2.7 2.7 0.0300002002716064 0 0 0 0 80 0 0 0 0 0 0 0 11 0 0 0 0 0
# === END OF DATA DESCRIPTION FILE ===============================================

